Timestamp (micros),Sensor1 (mV),Sensor2 (mV)
, 1
597287956, 0, 0
597305644, 0, 1
597323316,51612, 10404, 8836
53872, 9025, 3249
56092, 441, 196
58224, 81, 121
60680, 361, 441
78364, 289, 81
94996, 1, 49
109536, 144, 121
128280, 81, 4
143880, 1, 121
160524, 81, 16
177160, 0, 4
191712, 81, 64
208344, 9, 9
222916, 1, 25
238508, 36, 0
254120, 1, 4
268676, 16, 9
284264, 4, 0
298832, 4, 9
313400, 9, 4
327956, 0, 1
342516, 9, 1
357068, 0, 25
372660, 1, 0
387240, 1, 25
402836, 0, 1
417392, 0, 25
433000, 1, 1
447564, 1, 16
463160, 0, 1
477716, 0, 4
492264, 0, 4
506820, 0, 4
521400, 0, 4
535960, 0, 16
551556, 0, 0
566108, 0, 0
580688, 4, 1
595240, 0, 1
609784, 0, 0
624344, 0, 1
638900, 0, 0
653484, 0, 4
668036, 0, 4
682588, 0, 4
697156, 1, 1
711716, 0, 4
726276, 0, 25
741872, 0, 1
756432, 1, 4
770988, 0, 0
785568, 1, 1
800116, 0, 0
814676, 0, 4
829228, 0, 1
843800, 0, 4
858364, 0, 0
872908, 0, 4
887476, 1, 1
902028, 0, 4
916596, 1, 36
932208, 9, 4
946748, 16, 1
962356, 36, 1
977968, 9, 4
992516, 0, 0
1007064, 0, 0
1022676, 1, 4
1038272, 0, 4
1053876, 0, 1
1069472, 0, 0
1085068, 0, 4
1100664, 4, 0
1116280, 1, 9
1131872, 0, 0
1147468, 1, 1
1163076, 1, 1
1178680, 0, 4
1194276, 0, 0
1209880, 0, 0
1225468, 0, 9
1241072, 1, 1
1256680, 1, 9
1272276, 25, 0
1288920, 4, 1
1304508, 1, 0
1320124, 1, 1
1335716, 0, 4
1351308, 0, 4
1366916, 0, 4
1382512, 0, 0
1398116, 0, 0
1413720, 0, 4
1429320, 1, 1
1444912, 1, 9
1460512, 0, 0
1476120, 0, 9
1491708, 0, 0
1507304, 0, 4
1522916, 1, 0
1538516, 0, 0
1554116, 1, 1
1569712, 4, 1
1585320, 4, 9
1600912, 1, 0
1616508, 1, 1
1632116, 1, 0
1647716, 0, 0
1663320, 0, 1
1678912, 1, 0
1694520, 0, 16
1711160, 1, 0
1726756, 0, 4
1742356, 0, 0
1757952, 0, 0
1773544, 0, 1
1789156, 0, 0
1804756, 1, 0
1820360, 4, 1
1835944, 0, 1
1851556, 0, 0
1867152, 1, 0
1882756, 1, 4
1898352, 0, 1
1913956, 0, 4
1929552, 1, 0
1945148, 0, 4
1960756, 1, 0
1976356, 0, 1
1991960, 0, 1
2007560, 1, 1
2023148, 0, 1
2038752, 1, 0
2054356, 0, 4
2069952, 0, 0
2085556, 0, 0
2101152, 0, 4
2116760, 1, 4
2132356, 1, 1
2147948, 0, 0
2163560, 1, 1
2179168, 1, 16
2195812, 1, 36
2212440, 4, 1
2228028, 1, 1
2243636, 0, 9
2259244, 1, 0
2274840, 0, 9
2290440, 1, 0
2306024, 0, 0
2321640, 0, 0
2337240, 1, 1
2352840, 0, 16
2369472, 4, 0
2385076, 0, 1
2400676, 0, 1
2416268, 0, 9
2431876, 1, 0
2447476, 0, 0
2463076, 0, 1
2478676, 0, 0
2494268, 0, 4
2509884, 1, 0
2525472, 0, 4
2541076, 0, 1
2556668, 0, 0
2572264, 0, 36
2588916, 0, 1
2604504, 0, 4
2620108, 0, 1
2635704, 0, 1
2651332, 1, 1
2666916, 4, 0
2682516, 0, 4
2698116, 1, 0
2713720, 0, 4
2729328, 1, 0
2744908, 0, 4
2760516, 0, 0
2776116, 0, 1
2791716, 0, 4
2807312, 0, 0
2822908, 0, 4
2838512, 1, 9
2854120, 0, 16
2870760, 0, 0
2886348, 0, 1
2901948, 0, 4
2917552, 4, 0
2933156, 1, 9
2948752, 0, 1
2964348, 0, 16
2980992, 1, 9
2996596, 0, 4
3012200, 0, 1
3027788, 0, 1
3043396, 0, 4
3059004, 4, 1
3074604, 1, 9
3090188, 1, 0
3105788, 0, 0
3121404, 1, 9
3136992, 0, 0
3152592, 0, 4
3168184, 0, 1
3183796, 0, 1
3199396, 0, 1
3214988, 0, 0
3230600, 1, 16
3247244, 0, 4
3262832, 0, 1
3278428, 0, 1
3294040, 1, 1
3309644, 0, 0
3325248, 4, 9
3340844, 1, 25
3357472, 0, 4
3373080, 0, 1
3388676, 0, 0
3404276, 0, 0
3419876, 0, 0
3435476, 1, 1
3451088, 0, 9
3466680, 1, 0
3482276, 1, 4
3497880, 0, 1
3513480, 0, 1
3529080, 0, 1
3544672, 0, 0
3560276, 4, 9
3575876, 4, 0
3591476, 0, 9
3607072, 0, 0
3622668, 0, 4
3638268, 0, 0
3653872, 0, 0
3669472, 0, 1
3685068, 1, 0
3700672, 0, 4
3716284, 0, 1
3731876, 0, 9
3747476, 1, 0
3763080, 0, 1
3778680, 0, 0
3794284, 1, 0
3809872, 0, 4
3825476, 0, 0
3841076, 0, 4
3856676, 1, 0
3872280, 0, 1
3887880, 0, 1
3903460, 0, 0
3919072, 0, 4
3934676, 1, 1
3950272, 0, 9
3965872, 0, 0
3981476, 0, 1
3997080, 1, 0
4012676, 0, 0
4028280, 1, 4
4043876, 0, 0
4059484, 1, 4
4075076, 1, 1
4090680, 0, 9
4106276, 4, 0
4121884, 1, 4
4137480, 1, 1
4153076, 1, 0
4168664, 0, 4
4184280, 0, 1
4199868, 0, 9
4215480, 0, 1
4231072, 1, 4
4246676, 1, 1
4262276, 0, 0
4277864, 0, 4
4293472, 1, 0
4309076, 0, 16
4325716, 4, 1
4341312, 0, 1
4356916, 1, 4
4372516, 0, 1
4388116, 0, 0
4403716, 1, 0
4419304, 0, 4
4434900, 0, 0
4450520, 0, 4
4466116, 0, 0
4481708, 0, 0
4497304, 0, 4
4512912, 1, 0
4528524, 0, 1
4544120, 4, 9
4559716, 0, 25
4576364, 1, 0
4591956, 0, 0
4607552, 0, 4
4623156, 1, 0
4638748, 1, 0
4654364, 1, 1
4669948, 0, 4
4685556, 0, 0
4701148, 1, 0
4716764, 1, 4
4732348, 0, 0
4747948, 0, 9
4763548, 1, 0
4779156, 0, 9
4794756, 0, 0
4810352, 0, 1
4825948, 0, 4
4841552, 0, 0
4857152, 1, 9
4872756, 1, 0
4888348, 0, 9
4903956, 0, 0
4919556, 0, 1
4935152, 0, 1
4950756, 0, 0
4966344, 1, 4
4981952, 9, 0
4997556, 4, 1
5013156, 0, 1
5028756, 0, 4
5044356, 4, 0
5059964, 1, 0
5075556, 1, 9
5091152, 1, 0
5106756, 0, 4
5122360, 1, 1
5137956, 0, 16
5154592, 0, 1
5170200, 0, 0
5185792, 0, 0
5201384, 1, 0
5216984, 0, 1
5232580, 0, 4
5248196, 0, 4
5263788, 1, 0
5279400, 0, 4
5294996, 4, 0
5310596, 9, 1
5326212, 1, 1
5341788, 0, 0
5357396, 1, 1
5372996, 4, 1
5388596, 0, 1
5404204, 1, 0
5419792, 1, 0
5435376, 0, 9
5451000, 4, 0
5466600, 4, 9
5482192, 0, 0
5497780, 0, 4
5513392, 0, 4
5529004, 1, 4
5544592, 0, 1
5560184, 0, 0
5575792, 0, 16
5592436, 0, 0
5608028, 0, 4
5623628, 0, 0
5639236, 0, 0
5654840, 0, 9
5670436, 0, 9
5686040, 0, 0
5701628, 0, 4
5717232, 0, 16
5733876, 1, 0
5749476, 0, 0
5765060, 0, 0
5780676, 4, 1
5796268, 0, 4
5811876, 1, 0
5827480, 0, 4
5843076, 0, 0
5858676, 0, 4
5874276, 1, 0
5889880, 0, 4
5905480, 1, 9
5921076, 4, 0
5936676, 0, 4
5952264, 0, 0
5967864, 0, 0
5983480, 0, 16
6000120, 1, 1
6015704, 0, 1
6031300, 0, 0
6046916, 0, 4
6062508, 1, 1
6078104, 0, 0
6093716, 0, 25
6110364, 4, 1
6125968, 1, 9
6141548, 0, 0
6157152, 0, 1
6172764, 0, 0
6188356, 1, 0
6203952, 0, 9
6219548, 0, 1
6235156, 0, 1
6250752, 0, 0
6266348, 1, 1
6281956, 4, 1
6297544, 0, 4
6313164, 0, 0
6328748, 1, 1
6344348, 0, 9
6359956, 1, 0
6375568, 1, 9
6391156, 0, 0
6406748, 0, 0
6422352, 0, 4
6437956, 0, 0
6453556, 0, 4
6469156, 4, 0
6484748, 4, 4
6500340, 0, 0
6515956, 0, 1
6531544, 0, 4
6547152, 0, 1
6562744, 0, 1
6578352, 0, 0
6593956, 0, 9
6609556, 1, 1
6625152, 1, 1
6640760, 0, 1
6656356, 0, 4
6671956, 0, 0
6687552, 0, 0
6703156, 0, 4
6718756, 0, 0
6734356, 0, 4
6749960, 1, 1
6765548, 1, 0
6781156, 1, 4
6796756, 0, 4
6812356, 0, 1
6827948, 1, 0
6843560, 1, 4
6859156, 0, 0
6874752, 0, 4
6890356, 0, 1
6905956, 0, 4
6921548, 0, 0
6937156, 1, 0
6952748, 0, 4
6968356, 0, 0
6983960, 0, 4
6999556, 1, 0
7015152, 0, 4
7030748, 0, 0
7046356, 0, 0
7061952, 0, 9
7077548, 0, 0
7093148, 0, 9
7108752, 0, 0
7124356, 0, 4
7139956, 1, 0
7155548, 0, 0
7171164, 1, 0
7186756, 0, 0
7202352, 0, 4
7217944, 0, 0
7233556, 0, 4
7249168, 1, 1
7264748, 0, 1
7280352, 0, 1
7295940, 0, 0
7311552, 0, 4
7327156, 1, 0
7342748, 0, 4
7358352, 1, 0
7373952, 0, 0
7389564, 1, 4
7405148, 0, 9
7420752, 0, 0
7436364, 1, 0
7451960, 0, 16
7468592, 0, 1
7484192, 0, 1
7499796, 0, 0
7515396, 1, 0
7530988, 0, 1
7546592, 0, 0
7562180, 0, 4
7577796, 0, 0
7593396, 0, 4
7608992, 1, 0
7624592, 4, 1
7640192, 1, 0
7655792, 0, 0
7671396, 1, 1
7686988, 4, 0
7702600, 1, 4
7718204, 0, 1
7733804, 1, 1
7749396, 1, 1
7764988, 4, 0
7780600, 1, 16
7797240, 0, 1
7812840, 0, 1
7828432, 0, 1
7844040, 1, 1
7859644, 1, 4
7875236, 1, 0
7890836, 1, 1
7906436, 0, 0
7922040, 0, 4
7937636, 1, 0
7953228, 0, 1
7968836, 0, 1
7984436, 0, 0
8000048, 1, 1
8015636, 4, 1
8031224, 0, 4
8046840, 1, 0
8062428, 0, 9
8078028, 0, 0
8093628, 1, 0
8109236, 0, 1
8124844, 0, 0
8140428, 0, 4
8156028, 0, 0
8171636, 0, 4
8187248, 1, 4
8202832, 0, 4
8218432, 0, 1
8234032, 0, 0
8249632, 0, 4
8265244, 0, 0
8280828, 0, 1
8296424, 0, 1
8312040, 0, 0
8327636, 0, 1
8343228, 0, 0
8358828, 0, 1
8374436, 0, 1
8390032, 0, 25
8406680, 4, 1
8422268, 0, 1
8437876, 0, 1
8453476, 0, 1
8469080, 0, 4
8484680, 1, 1
8500280, 0, 1
8515880, 0, 1
8531484, 1, 1
8547076, 4, 1
8562664, 0, 1
8578280, 0, 1
8593864, 0, 0
8609468, 0, 4
8625060, 0, 0
8640680, 0, 4
8656276, 0, 0
8671868, 0, 1
8687476, 0, 0
8703080, 0, 1
8718680, 0, 1
8734264, 0, 0
8749876, 0, 1
8765476, 0, 4
8781080, 0, 4
8796672, 0, 1
8812264, 0, 0
8827860, 0, 9
8843476, 0, 1
8859072, 0, 1
8874676, 1, 0
8890268, 0, 4
8905872, 0, 0
8921488, 1, 1
8937080, 4, 0
8952680, 0, 1
8968288, 0, 1
8983880, 0, 0
8999468, 0, 9
9015076, 1, 0
9030680, 0, 4
9046288, 0, 0
9061880, 0, 1
9077468, 0, 4
9093064, 1, 0
9108672, 0, 4
9124276, 1, 0
9139872, 0, 4
9155480, 1, 1
9171076, 0, 1
9186676, 0, 1
9202276, 1, 0
9217872, 0, 9
9233472, 0, 0
9249084, 1, 9
9264684, 0, 0
9280268, 0, 1
9295860, 1, 0
9311480, 0, 1
9327076, 0, 1
9342664, 0, 0
9358264, 0, 4
9373880, 0, 1
9389476, 0, 0
9405080, 0, 4
9420680, 1, 1
9436276, 0, 1
9451884, 1, 0
9467468, 1, 9
9483064, 0, 0
9498680, 0, 4
9514280, 0, 1
9529876, 0, 4
9545472, 1, 0
9561072, 0, 1
9576676, 0, 1
9592276, 1, 0
9607868, 0, 4
9623472, 1, 1
9639088, 0, 9
9654680, 0, 0
9670276, 0, 4
9685868, 0, 0
9701484, 0, 0
9717076, 0, 1
9732664, 0, 0
9748276, 0, 4
9763880, 1, 1
9779476, 0, 4
9795080, 0, 0
9810668, 0, 0
9826268, 0, 4
9841872, 0, 0
9857472, 0, 4
9873068, 4, 0
9888668, 4, 1
9904276, 0, 4
9919876, 0, 0
9935468, 0, 1
9951068, 0, 0
9966688, 1, 9
9982280, 4, 1
9997868, 0, 4
10013476, 1, 0
10030128, 1, 1
10046756, 0, 1
10063396, 0, 0
10080028, 0, 1
10096680, 0, 1
10113316, 4, 0
10129964, 1, 1
10146596, 1, 1
10163240, 1, 0
10179880, 9, 1
10196520, 16, 4
10214184, 0, 0
10230832, 4, 0
10247476, 0, 1
10264116, 0, 0
10280744, 0, 0
10297396, 4, 0
10314040, 4, 4
10330680, 9, 1
10347312, 64, 16
10366036, 100, 1
10384760, 324, 4
10403468, 289, 16
10423224, 36, 4
10440916, 0, 0
10457552, 9, 0
10474192, 49, 4
10491860, 25, 1
10509556, 4, 1
10526196, 9, 9
10542840, 9, 1
10559464, 0, 1
10576120, 1, 4
10592760, 9, 0
10609388, 25, 0
10627068, 9, 0
10643724, 1, 0
10660352, 1, 0
10676988, 1, 1
10693640, 4, 1
10710272, 0, 0
10726908, 16, 1
10744588, 16, 0
10762276, 1, 1
10778916, 1, 0
10795564, 0, 0
10812184, 0, 0
10828832, 4, 0
10845476, 0, 0
10862128, 1, 0
10878756, 0, 0
10895404, 0, 1
10912048, 9, 1
10928680, 9, 0
10945312, 1, 0
10961956, 1, 1
10978596, 1, 0
10995248, 16, 1
11012916, 9, 0
11029556, 1, 1
11046196, 4, 0
11062840, 0, 4
11079476, 0, 0
11096116, 0, 0
11112760, 16, 1
11130424, 36, 0
11148116, 4, 0
11164768, 9, 1
11181404, 9, 0
11198028, 1, 0
11214664, 0, 0
11231316, 0, 4
11247952, 0, 0
11264596, 16, 4
11282264, 49, 0
11299960, 81, 1
11317640, 324, 9
11336356, 81, 4
11354028, 81, 0
11371724, 256, 9
11390428, 361, 9
11409156, 289, 9
11427876, 121, 4
11446600, 25, 0
11464280, 1, 16
11481948, 0, 81
11499644, 4, 49
11517324, 4, 1
11533944, 16, 25
11552668, 16, 16
11571400, 1, 36
11589076, 16, 144
11608836, 4, 25
11626516, 64, 1
11644200, 144, 0
11662908, 196, 0
11681632, 100, 4
11700364, 1, 4
11716996, 36, 1
11734668, 16, 1
11752352, 0, 0
11768996, 9, 0
11785648, 1, 4
11802268, 81, 0
11819952, 1, 9
11836604, 576, 16
11856344, 1089, 25
11877148, 361, 225
11897960, 9, 256
11916676, 9, 81
11934360, 9, 49
11952028, 16, 16
11970764, 16, 225
11990520, 0, 9
12007156, 4, 169
12025880, 9, 441
12044596, 64, 225
12064356, 25, 1
12082032, 9, 9
12098672, 0, 64
12116364, 4, 121
12135072, 1, 144
12153784, 0, 144
12172524, 25, 64
12191236, 49, 144
12211004, 25, 9
12228688, 1, 25
12246372, 9, 0
12262992, 25, 49
12281724, 25, 1
12299400, 1, 4
12316036, 0, 1
12332668, 9, 289
12351392, 9, 1024
12371160, 16, 196
12390912, 16, 0
12408596, 144, 169
12429396, 400, 484
12450200, 196, 676
12470996, 169, 576
12491804, 196, 9
12510520, 64, 1
12528192, 1, 1
12544840, 9, 361
12563556, 4, 784
12582288, 16, 400
12602032, 4, 1
12618664, 0, 4
12635316, 9, 144
12654036, 1, 49
12671724, 9, 0
12688348, 1, 121
12707076, 25, 196
12726828, 49, 1
12744508, 49, 1
12762204, 25, 1
12779876, 25, 49
12798604, 1, 64
12816268, 121, 400
12837076, 289, 400
12857880, 100, 361
12878676, 36, 441
12898440, 25, 1
12916132, 1, 49
12933784, 9, 49
12951460, 4, 169
12970204, 4, 4
12986836, 9, 169
13005556, 4, 361
13024284, 9, 121
13043008, 9, 25
13060684, 1, 0
13077312, 81, 121
13097072, 169, 9
13115796, 121, 576
13136604, 0, 121
13155312, 25, 16
13174048, 0, 1
13190692, 25, 196
13210440, 100, 289
13231244, 25, 16
13249964, 0, 4
13266596, 4, 196
13285312, 1, 361
13304048, 0, 25
13321704, 0, 225
13340436, 1, 225
13359168, 49, 36
13377880, 225, 1
13396588, 100, 25
13416356, 0, 36
13434044, 4, 100
13452744, 0, 81
13470424, 25, 49
13489140, 9, 49
13506836, 0, 16
13524524, 9, 64
13542192, 0, 9
13558848, 1, 16
13576520, 81, 196
13596280, 25, 1
13613956, 36, 256
13633720, 36, 144
13653472, 0, 81
13671148, 0, 256
13689884, 1, 64
13707564, 16, 64
13726268, 1, 225
13744996, 36, 100
13764756, 49, 1
13782444, 25, 9
13800116, 25, 324
13819864, 9, 0
13836524, 1, 1156
13856276, 64, 441
13876040, 121, 64
13895800, 4, 36
13913488, 25, 49
13932200, 4, 0
13948824, 289, 841
13969636, 144, 100
13990440, 1, 625
14009148, 49, 324
14028916, 121, 49
14048696, 0, 4
14065312, 36, 121
14085072, 49, 36
14103800, 36, 64
14122520, 0, 25
14140200, 0, 169
14158924, 81, 729
14178672, 81, 144
14198428, 9, 16
14216108, 1, 121
14234840, 9, 0
14251464, 25, 400
14271236, 0, 16
14288912, 1, 625
14307644, 16, 16
14326352, 9, 169
14345076, 49, 1
14362768, 4, 256
14381480, 16, 361
14401224, 4, 9
14417872, 9, 81
14435556, 4, 144
14454276, 144, 361
14475064, 144, 36
14494840, 0, 25
14512528, 49, 1
14530192, 0, 256
14548908, 25, 256
14568672, 16, 100
14588444, 144, 900
14609232, 49, 169
14629004, 4, 9
14645636, 0, 36
14663320, 4, 0
14679960, 4, 81
14697636, 9, 9
14714280, 1, 256
14732996, 49, 289
14752744, 64, 256
14772516, 25, 121
14792276, 4, 25
14809956, 144, 49
14829712, 169, 100
14850512, 9, 9
14867164, 25, 16
14885876, 4, 25
14903560, 4, 9
14920204, 0, 25
14937864, 49, 1849
14958668, 169, 4096
14980512, 289, 400
15001312, 256, 0
15020040, 1, 0
15036676, 0, 64
15054356, 81, 81
15073076, 49, 289
15092844, 64, 1
15110520, 36, 4
15128200, 9, 0
15144844, 16, 1
15162512, 144, 729
15183312, 64, 841
15203072, 16, 100
15222840, 49, 9
15240528, 81, 49
15259224, 0, 36
15276908, 25, 25
15295644, 1, 9
15312272, 0, 9
15328908, 0, 16
15346592, 4, 1
15363236, 25, 36
15381960, 0, 4
15398600, 25, 1
15416268, 1, 4
15432916, 16, 9
15450584, 100, 1849
15472428, 529, 4624
15494276, 100, 0
15512996, 64, 576
15532760, 289, 16
15552492, 121, 1600
15574352, 169, 3249
15596188, 784, 1369
15618016, 289, 841
15638844, 4, 100
15657552, 36, 81
15676264, 1, 361
15695008, 25, 225
15714752, 64, 121
15734512, 64, 64
15753240, 1, 4
15769876, 16, 36
15788588, 0, 25
15806268, 9, 9
15822916, 16, 25
15841648, 16, 169
15861392, 16, 400
15881156, 9, 36
15898832, 81, 361
15918588, 144, 841
15939392, 64, 9
15957088, 1, 121
15975796, 16, 0
15993468, 4, 81
16011156, 1, 36
16028840, 1, 9
16045480, 4, 25
16063144, 9, 64
16080828, 36, 324
16100604, 16, 81
16119328, 25, 0
16136996, 49, 1
16154688, 64, 25
16173396, 64, 144
16193144, 0, 529
16211864, 0, 784
16230600, 1, 225
16249316, 1, 25
16266984, 64, 0
16284684, 4, 25
16302356, 9, 36
16320036, 36, 169
16339792, 16, 676
16359552, 49, 100
16379312, 81, 4
16396996, 4, 81
16414668, 1, 576
16433404, 9, 100
16452128, 4, 81
16469796, 16, 0
16487492, 4, 441
16506208, 25, 196
16525960, 9, 25
16543632, 9, 49
16561320, 4, 0
16577964, 0, 9
16594604, 0, 4
16611232, 49, 169
16630988, 81, 841
16650752, 36, 225
16670508, 64, 4
16688204, 9, 4
16704844, 0, 4
16721468, 0, 36
16739160, 25, 100
16758916, 196, 324
16779716, 100, 576
16800512, 4, 64
16818200, 36, 49
16836924, 25, 0
16854596, 36, 9
16872276, 81, 16
16890992, 4, 64
16908692, 0, 16
16926360, 49, 36
16945072, 49, 9
16962756, 4, 0
16979392, 0, 0
16996036, 9, 196
17014748, 25, 729
17034528, 49, 361
17054284, 16, 4
17071956, 9, 16
17089640, 36, 0
17107320, 9, 196
17126032, 9, 9
17142676, 4, 441
17161392, 25, 121
17181156, 25, 25
17199880, 9, 144
17218600, 4, 49
17236280, 0, 0
17252916, 0, 0
17269552, 1, 16
17287248, 9, 289
17305960, 25, 400
17325720, 16, 36
17344432, 9, 64
17362124, 4, 289
17380844, 9, 100
17399552, 25, 16
17418280, 16, 25
17437004, 9, 100
17455716, 4, 1
17472352, 1, 81
17490040, 36, 81
17508760, 36, 400
17528516, 1, 4
17545148, 1, 0
17561800, 9, 36
17579476, 16, 225
17599228, 25, 121
17618996, 4, 1
17635640, 4, 1
17652276, 1, 4
17668908, 16, 16
17687648, 36, 36
17706364, 1, 4
17722996, 36, 1
17740660, 0, 400
17759404, 169, 1369
17781228, 196, 169
17802028, 64, 100
17821816, 0, 484
17840516, 1, 361
17859232, 25, 64
17877944, 64, 9
17895652, 4, 9
17912280, 25, 4
17929948, 4, 16
17947616, 49, 841
17967400, 49, 2401
17988192, 144, 625
18008996, 100, 1
18027716, 1, 16
18045392, 4, 4
18062036, 49, 36
18080744, 0, 49
18098448, 4, 4
18115076, 9, 36
18132752, 16, 400
18152520, 64, 64
18171244, 49, 121
18190996, 1, 49
18208664, 0, 169
18227400, 0, 9
18244020, 36, 961
18263788, 9, 196
18282520, 36, 49
18301232, 9, 64
18318908, 0, 1024
18338664, 81, 1849
18359480, 25, 961
18379236, 0, 16
18396916, 0, 9
18413548, 1, 0
18430200, 16, 169
18449964, 100, 841
18470744, 0, 289
18489480, 121, 324
18510264, 81, 625
18530028, 36, 64
18548760, 49, 25
18567480, 4, 0
18584116, 1, 16
18601784, 25, 256
18621548, 25, 841
18641316, 16, 1369
18662108, 64, 1089
18682916, 100, 1024
18704768, 16, 64
18723480, 9, 16
18741156, 1, 0
18757812, 9, 25
18775480, 1, 4
18792108, 1, 4
18808744, 25, 81
18827476, 100, 81
18847232, 36, 16
18865956, 0, 256
18884688, 36, 529
18904440, 100, 400
18925228, 100, 1
18943932, 324, 3721
18965784, 784, 13689
18988676, 961, 2304
19010508, 484, 0
19029240, 0, 4
19045884, 9, 169
19064588, 81, 361
19084356, 0, 49
19102040, 49, 0
19119724, 81, 1
19137400, 81, 36
19156104, 400, 256
19176904, 9, 0
19193556, 144, 484
19214360, 324, 484
19235160, 196, 256
19255948, 4, 196
19274680, 4, 16
19292352, 0, 289
19311068, 9, 1089
19330832, 25, 196
19350592, 25, 1764
19371400, 676, 5329
19393240, 784, 225
19414040, 225, 529
19434844, 36, 676
19454584, 36, 576
19474344, 1, 1
19490988, 36, 49
19509704, 25, 324
19529472, 169, 676
19550280, 4, 196
19569012, 4, 64
19586664, 9, 81
19604360, 1, 25
19622040, 9, 9
19638676, 0, 196
19657392, 4, 169
19676112, 4, 1
19692752, 4, 0
19709396, 16, 16
19728116, 4, 49
19745800, 4, 1
19762444, 0, 0
19779084, 25, 9
19796752, 16, 16
19815476, 1, 16
19833156, 0, 49
19850832, 0, 36
19868516, 1, 16
19886212, 4, 16
19903872, 0, 36
19921560, 4, 49
19939236, 4, 4
19955884, 0, 64
19973556, 36, 100
19993312, 36, 64
20012048, 1, 676
20030760, 16, 441
20050524, 16, 9
20068188, 4, 36
20085880, 9, 0
20102520, 4, 1
20119148, 4, 81
20136828, 0, 169
20155560, 9, 9
20172204, 36, 9
20189880, 25, 1
20207540, 9, 9
20224204, 16, 4
20241880, 1, 0
20258524, 4, 9
20275156, 1, 9
20291804, 9, 49
20309468, 16, 4
20327156, 16, 81
20345884, 0, 1
20362512, 49, 0
20380204, 16, 1
20397872, 25, 9
20415560, 9, 1
20432204, 1, 1
20448840, 1, 9
20465476, 0, 9
20482112, 0, 36
20499804, 0, 4
20516436, 1, 324
20535156, 9, 16
20552836, 225, 729
20573628, 121, 256
20594428, 4, 289
20613160, 121, 729
20633960, 36, 400
20653704, 25, 144
20673464, 16, 144
20693232, 0, 121
20711964, 25, 576
20731712, 81, 1296
20752508, 441, 256
20773308, 100, 49
20793084, 0, 25
20810752, 0, 36
20828436, 0, 225
20847144, 0, 0
20863784, 144, 64
20883552, 121, 289
20904352, 25, 729
20924116, 1, 196
20942828, 49, 100
20962604, 9, 225
20981316, 4, 16
20998992, 9, 16
21016692, 1, 1
21033316, 4, 144
21052040, 9, 49
21069720, 64, 36
21088436, 16, 81
21107156, 1, 64
21124836, 0, 36
21142508, 0, 9
21159168, 1, 1
21175804, 0, 9
21192432, 16, 289
21212192, 81, 100
21231952, 64, 49
21250676, 4, 256
21269400, 36, 49
21288120, 169, 729
21308908, 169, 256
21329708, 49, 49
21348444, 1, 100
21367152, 49, 676
21386920, 100, 576
21407708, 25, 121
21427484, 81, 25
21446196, 64, 9
21463864, 25, 4
21481560, 49, 9
21499236, 36, 4
21516920, 0, 100
21535624, 144, 361
21556436, 4, 25
21574120, 36, 1
21591796, 1, 36
21609476, 36, 121
21629240, 676, 49
21648988, 16, 36
21667708, 625, 4
21686432, 441, 0
21705148, 256, 0
21723880, 81, 16
21742608, 0, 169
21761324, 0, 81
21779000, 1, 1
21795636, 36, 16
21814364, 121, 144
21835168, 25, 4
21852836, 25, 324
21872584, 100, 25
21892356, 81, 4
21910036, 9, 0
21926664, 0, 64
21944360, 49, 100
21964116, 64, 16
21982836, 4, 36
22000520, 4, 4
22017164, 4, 25
22034836, 1, 4
22051468, 0, 196
22070196, 25, 144
22089968, 169, 9
22108668, 81, 9
22126364, 9, 196
22145080, 121, 484
22165880, 64, 1
22183544, 9, 361
22202272, 81, 4
22219960, 0, 64
22237644, 25, 36
22256348, 0, 64
22274036, 1, 49
22291720, 64, 64
22310452, 144, 196
22331232, 121, 324
22352036, 81, 121
22371792, 100, 64
22391552, 36, 64
22410276, 1, 0
22426916, 0, 0
22443556, 4, 0
22460184, 16, 81
22478916, 16, 169
22498676, 49, 1
22516352, 16, 9
22534032, 16, 121
22553796, 9, 361
22572516, 4, 16
22590200, 25, 25
22608916, 1, 9
22625556, 0, 25
22643248, 1, 100
22661956, 9, 100
22680672, 25, 49
22699396, 9, 16
22717076, 1, 0
22733720, 25, 36
22752436, 49, 225
22772196, 81, 100
22791944, 225, 81
22811716, 64, 64
22830428, 100, 1521
22852276, 400, 3844
22874112, 196, 196
22894920, 25, 169
22914676, 25, 36
22933396, 1, 4
22950032, 4, 4
22966676, 36, 1
22984348, 25, 4
23002032, 4, 9
23018684, 4, 4
23035308, 36, 1
23052996, 4, 49
23070672, 9, 16
23088368, 9, 0
23105000, 36, 0
23122664, 0, 0
23139308, 9, 9
23155968, 100, 25
23175716, 225, 100
23196512, 16, 16
23215236, 0, 1
23231876, 16, 49
23250600, 9, 1
23267228, 0, 36
23284924, 25, 256
23304672, 25, 144
23324436, 9, 0
23341088, 49, 100
23360836, 49, 36
23379548, 0, 1
23396184, 4, 64
23413872, 0, 25
23431564, 9, 9
23448196, 25, 16
23466916, 25, 36
23485644, 16, 9
23503324, 0, 121
23522032, 36, 361
23541808, 121, 324
23562600, 324, 441
23583400, 324, 841
23604184, 100, 576
23624992, 9, 25
23642676, 49, 256
23662432, 256, 64
23682196, 16, 81
23700924, 36, 196
23720672, 1, 361
23739400, 0, 25
23757076, 49, 900
23776828, 100, 841
23797620, 81, 1521
23818440, 169, 2704
23840272, 576, 484
23861076, 289, 4
23879788, 0, 324
23898516, 100, 1024
23920356, 484, 361
23941164, 36, 100
23960912, 0, 0
23977548, 25, 0
23995232, 36, 49
24013964, 81, 25
24032672, 100, 36
24052424, 16, 25
24071148, 4, 9
24087804, 9, 1
24104424, 0, 169
24123156, 4, 169
24141884, 0, 9
24158536, 4, 16
24176188, 25, 4
24193868, 36, 4
24211560, 9, 1
24228196, 64, 144
24247944, 49, 324
24267712, 16, 9
24285404, 36, 36
24304108, 9, 36
24321796, 0, 4
24338436, 1, 0
24355084, 1, 9
24371708, 0, 4
24388360, 36, 9
24406040, 100, 49
24425800, 25, 4
24443484, 0, 9
24460120, 16, 4
24477800, 121, 9
24496520, 36, 0
24514184, 4, 64
24531872, 25, 9
24549556, 36, 1
24567232, 9, 36
24584916, 1, 100
24603624, 1, 81
24621316, 0, 64
24638996, 0, 36
24656680, 1, 1
24673316, 0, 0
24689956, 16, 4
24707644, 36, 16
24726356, 16, 81
24745084, 4, 49
24762752, 0, 36
24780432, 16, 121
24800200, 1, 4
24816848, 81, 9
24834520, 4, 36
24852192, 16, 0
24869860, 36, 1
24887552, 16, 1
24905240, 4, 49
24922928, 4, 4
24939560, 0, 36
24957236, 9, 36
24974908, 25, 100
24994680, 9, 121
25013396, 36, 169
25033156, 25, 25
25051872, 0, 4
25068500, 16, 0
25086204, 1, 0
25102832, 1, 9
25119476, 0, 169
25138204, 1, 81
25155884, 169, 36
25175636, 361, 100
25196428, 64, 25
25215156, 1, 4
25231796, 1, 16
25249480, 9, 81
25267144, 16, 121
25286924, 0, 1
25303560, 25, 49
25322280, 16, 16
25340996, 9, 0
25357640, 1, 4
25374276, 1, 64
25391956, 9, 289
25410668, 4, 169
25429400, 0, 169
25448104, 0, 64
25465776, 16, 1
25483472, 9, 25
25501156, 0, 36
25518840, 1, 0
25535472, 4, 0
25552128, 0, 4
25568756, 1, 25
25586436, 4, 0
25603080, 9, 4
25619716, 25, 1
25637392, 16, 64
25656108, 4, 0
25672768, 4, 64
25690440, 0, 36
25708116, 1, 9
25724744, 0, 9
25741396, 0, 0
25758048, 9, 64
25775704, 9, 0
25792348, 4, 16
25810044, 1, 0
25826676, 0, 9
25843320, 4, 4
25859960, 0, 4
25876596, 0, 0
25893240, 0, 9
25909876, 1, 4
25926508, 1, 1
25943160, 0, 25
25960844, 0, 36
25978516, 0, 1
25995164, 0, 9
26011796, 4, 0
26028436, 0, 4
26045068, 0, 0
26061712, 4, 1
26078360, 0, 36
26096036, 1, 64
26113720, 0, 9
26130336, 0, 9
26146992, 0, 25
26164676, 0, 0
26181312, 0, 1
26197940, 0, 0
26214588, 0, 1
26231240, 1, 9
26247876, 1, 4
26264508, 0, 1
26281156, 16, 0
26298832, 9, 1
26315480, 1, 9
26332100, 0, 4
26348756, 0, 1
26365396, 0, 0
26382028, 0, 0
26398660, 0, 0
26415312, 0, 0
26431948, 0, 0
26448588, 0, 0
26465224, 0, 1
26481876, 0, 9
26498512, 0, 9
26515148, 0, 1
26531776, 0, 9
26548444, 1, 49
26566112, 0, 9
26582748, 0, 1
26599392, 1, 4
26616032, 9, 64
26633712, 25, 100
26653480, 1, 1
26670116, 25, 9
26687796, 36, 9
26705468, 9, 1
26722116, 9, 16
26739792, 64, 169
26759552, 25, 144
26779320, 0, 0
26795948, 0, 9
26812596, 0, 81
26830276, 4, 16
26847944, 4, 1
26864580, 0, 36
26882272, 1, 64
26899960, 1, 4
26916592, 0, 64
26934264, 9, 9
26950916, 1, 0
26967552, 0, 4
26984196, 9, 1
27000836, 25, 9
27018516, 0, 4
27035160, 0, 4
27051792, 16, 0
27069476, 25, 121
27089236, 0, 0
27105880, 4, 324
27124588, 25, 144
27144356, 25, 4
27162032, 0, 16
27179720, 1, 1
27196356, 1, 4
27213008, 4, 1
27229640, 1, 1
27246268, 0, 16
27263948, 16, 49
27282680, 100, 100
27303472, 100, 64
27323236, 0, 1
27339876, 4, 36
27357572, 1, 400
27376272, 49, 169
27396024, 64, 1
27413716, 0, 25
27431384, 0, 25
27449072, 16, 36
27467808, 144, 16
27487556, 441, 64
27507316, 121, 1
27526044, 1, 1
27542680, 0, 1
27559316, 4, 4
27575948, 0, 16
27593632, 9, 36
27611312, 0, 289
27630036, 9, 225
27648756, 36, 9
27666440, 1, 9
27683088, 4, 25
27700764, 0, 4
27717400, 1, 1
27734040, 16, 1
27751724, 0, 0
27768368, 1, 0
27784988, 100, 0
27803724, 100, 1
27822440, 25, 1
27840120, 0, 0
27856748, 64, 49
27875472, 64, 16
27894196, 1, 1
27910836, 16, 16
27929552, 4, 1
27946200, 9, 0
27962832, 1, 0
27979472, 9, 1
27996116, 9, 1
28012764, 9, 1
28029396, 25, 9
28047068, 64, 9
28064748, 25, 0
28082432, 16, 0
28100120, 9, 0
28116756, 1, 25
28134444, 9, 0
28151088, 9, 16
28168752, 0, 0
28185388, 16, 4
28203072, 4, 16
28220752, 1, 25
28238436, 4, 9
28255068, 49, 81
28273804, 169, 121
28294588, 49, 36
28313316, 1, 1
28329944, 4, 25
28347640, 0, 0
28364264, 1, 64
28381944, 25, 441
28401716, 36, 16
28420440, 4, 16
28438104, 16, 49
28456832, 1, 100
28475560, 64, 81
28494272, 0, 196
28512996, 4, 81
28530668, 16, 16
28549396, 9, 1
28566040, 16, 16
28584760, 1, 9
28601396, 0, 25
28619080, 0, 49
28636756, 16, 4
28654448, 1, 9
28671072, 289, 4
28689796, 169, 25
28709556, 9, 81
28727224, 36, 49
28745960, 0, 16
28763624, 16, 121
28783392, 0, 441
28802112, 0, 100
28820844, 25, 169
28840592, 49, 256
28860348, 121, 64
28880116, 144, 0
28898852, 25, 16
28917552, 0, 9
28934204, 1, 16
28951888, 36, 1
28969556, 36, 9
28987236, 9, 16
29004916, 9, 9
29021556, 100, 4
29040276, 49, 4
29057948, 1, 4
29074600, 4, 9
29091240, 0, 0
29107880, 9, 1
29124512, 9, 9
29141168, 1, 49
29158828, 81, 9
29176512, 169, 0
29195220, 121, 49
29215000, 16, 81
29233716, 1, 9
29250348, 0, 4
29266992, 0, 36
29284676, 1, 25
29302356, 1, 0
29318992, 4, 0
29335636, 1, 0
29352276, 0, 0
29368920, 1, 1
29385560, 4, 1
29402200, 4, 1
29418836, 1, 1
29435476, 1, 0
29452112, 25, 0
29469796, 36, 0
29487476, 4, 1
29504116, 9, 4
29520756, 81, 25
29539476, 49, 9
29557156, 4, 1
29573784, 0, 0
29590432, 0, 4
29607080, 1, 0
29623712, 9, 4
29640356, 9, 1
29656988, 1, 0
29673644, 1, 0
29690276, 0, 9
29706920, 0, 4
29723552, 0, 4
29740208, 0, 9
29756836, 0, 9
29773464, 0, 16
29791144, 0, 4
29807804, 0, 0
29824428, 0, 4
29841076, 0, 16
29858740, 9, 16
29876440, 4, 1
29893072, 0, 4
29909720, 4, 4
29926352, 1, 1
29942996, 0, 1
29959632, 9, 1
29976276, 9, 9
29992908, 16, 9
30010600, 36, 1
30028268, 9, 0
30044916, 25, 4
30062600, 25, 9
30080284, 0, 0
30096916, 1, 0
30113552, 1, 1
30130196, 1, 0
30146844, 0, 9
30163476, 0, 4
30180104, 0, 0
30196756, 0, 1
30213396, 0, 0
30230036, 0, 4
30246676, 0, 4
30263316, 0, 1
30279956, 1, 1
30296600, 4, 0
30313240, 16, 1
30330920, 4, 0
30347560, 9, 1
30364200, 81, 9
30381880, 36, 1
30399564, 1, 0
30416200, 0, 1
30432840, 9, 4
30449472, 4, 4
30466116, 0, 0
30482764, 4, 1
30499400, 1, 0
30516044, 4, 4
30532680, 1, 4
30549324, 9, 4
30565956, 0, 25
30583636, 49, 4
30601324, 1, 0
30617956, 36, 25
30636672, 81, 81
30655392, 64, 36
30674116, 9, 9
30690752, 1, 1
30707392, 1, 0
30724036, 0, 1
30740684, 9, 1
30757320, 0, 1
30773956, 81, 4
30791632, 100, 4
30810364, 36, 0
30828040, 196, 0
30846756, 196, 36
30866516, 25, 25
30885240, 4, 4
30901880, 64, 1
30919552, 100, 9
30938276, 0, 49
30955944, 324, 4
30974672, 121, 121
30995476, 49, 4
31013172, 0, 4
31029800, 36, 9
31047472, 4, 16
31065152, 4, 16
31082840, 256, 49
31102596, 576, 1
31121308, 16, 36
31140044, 0, 64
31157708, 256, 169
31178512, 196, 4
31197232, 25, 0
31214920, 0, 1
31231556, 225, 16
31251316, 625, 4
31270040, 441, 16
31289792, 169, 9
31308516, 81, 16
31327228, 196, 36
31347000, 100, 16
31366744, 144, 36
31386516, 9, 9
31403156, 25, 4
31420836, 144, 0
31439548, 36, 4
31457220, 81, 9
31474924, 81, 0
31492596, 225, 1
31511312, 484, 49
31531076, 1, 16
31548760, 121, 9
31567472, 0, 1
31584112, 25, 1
31601796, 9, 100
31620528, 49, 16
31639228, 121, 25
31658996, 16, 9
31676680, 4, 9
31693316, 121, 0
31712036, 9, 1
31728680, 484, 9
31747400, 289, 81
31767160, 64, 1
31784836, 16, 9
31802520, 9, 49
31820204, 169, 9
31838908, 9, 36
31856572, 400, 1
31875304, 4, 0
31891948, 3025, 0
31911712, 529, 100
31932524, 25, 4
31950196, 16, 25
31968920, 256, 4
31987620, 81, 16
32006364, 0, 0
32022992, 49, 25
32041716, 484, 9
32060448, 484, 4
32079156, 36, 1
32096824, 1, 25
32114508, 144, 4
32133248, 49, 1
32150920, 0, 4
32167556, 4, 9
32184200, 25, 64
32202920, 900, 64
32222672, 324, 81
32242436, 361, 1
32261164, 729, 64
32280924, 1, 0
32297544, 1024, 81
32318340, 784, 49
32338108, 1, 4
32354760, 324, 16
32374516, 1444, 64
32395316, 2025, 25
32416112, 1369, 16
32436920, 49, 25
32455628, 36, 1
32473320, 144, 0
32492036, 289, 0
32510752, 196, 0
32529484, 100, 4
32548208, 1, 1
32564824, 25, 49
32583544, 81, 0
32601236, 49, 9
32618904, 841, 16
32638664, 3844, 144
32660516, 1681, 324
32682356, 225, 100
32703148, 841, 16
32722912, 1600, 9
32742680, 1089, 4
32762428, 81, 36
32781156, 49, 16
32799880, 49, 1
32817556, 4, 1
32834188, 900, 9
32852908, 2401, 36
32873724, 1369, 25
32894512, 25, 16
32913240, 961, 1
32931948, 4624, 36
32952760, 3364, 196
32974600, 361, 81
32994372, 64, 4
33012040, 324, 4
33030752, 2116, 49
33051548, 784, 121
33072368, 144, 1
33091072, 144, 1
33109792, 100, 25
33129572, 49, 1
33147244, 36, 4
33164916, 289, 0
33183632, 36, 9
33201320, 441, 1
33220036, 49, 16
33238748, 9, 16
33256432, 49, 9
33274116, 25, 4
33291796, 36, 4
33309476, 9, 0
33326124, 100, 1
33344828, 1600, 4
33364584, 4225, 225
33386428, 3481, 256
33408268, 529, 100
33429056, 1089, 36
33449868, 2209, 121
33471712, 400, 121
33492516, 289, 9
33511228, 324, 64
33530996, 625, 16
33550764, 36, 1
33568432, 64, 1
33586104, 361, 1
33604840, 16, 16
33623552, 676, 4
33642264, 961, 0
33661000, 289, 4
33679724, 36, 9
33697388, 121, 1
33716108, 4096, 49
33736912, 8281, 529
33758752, 4225, 361
33780580, 361, 36
33800356, 729, 36
33820108, 1764, 169
33841932, 4225, 196
33863792, 5476, 324
33885644, 1, 169
33904348, 1444, 121
33926196, 81, 81
33944912, 256, 64
33964664, 676, 1
33983384, 5184, 169
34005228, 121, 16
34024996, 1521, 81
34045800, 1, 1
34062440, 841, 100
34083240, 49, 0
34100916, 64, 4
34118572, 729, 196
34139392, 1521, 0
34159140, 26896, 900
34182024, 13225, 841
34204920, 144, 9
34223628, 2704, 81
34244420, 289, 121
34265240, 2401, 121
34287064, 400, 25
34306828, 81, 36
34325552, 1156, 9
34345312, 64, 49
34364016, 1444, 16
34384820, 4356, 196
34406668, 36, 36
34425376, 4096, 441
34447212, 81, 144
34466992, 6561, 289
34488836, 121, 49
34508568, 5041, 361
34530408, 3600, 0
34550176, 7396, 676
34572024, 784, 1
34590748, 3600, 196
34612592, 1681, 64
34633392, 256, 36
34653136, 144, 256
34673944, 1444, 16
34694748, 25, 4
34712428, 4761, 9
34732208, 1600, 484
34754024, 2209, 1
34773780, 9409, 1296
34796668, 4489, 484
34818520, 729, 1
34837248, 9, 81
34854904, 784, 1
34873636, 196, 169
34894412, 625, 0
34913156, 1936, 0
34932928, 64, 169
34952688, 1, 1
34969308, 625, 1
34988024, 361, 81
35007804, 25, 1
35025476, 36, 121
35045240, 121, 1
35063960, 324, 100
35084760, 1, 0
35101400, 625, 9
35120108, 900, 9
35138836, 441, 144
35159624, 484, 49
35179388, 625, 100
35200196, 900, 4
35218912, 2704, 289
35240756, 961, 25
35260516, 64, 1
35278200, 625, 4
35296920, 64, 4
35314592, 1, 4
35331236, 25, 16
35349948, 324, 1
35368676, 64, 16
35387380, 49, 4
35405076, 1681, 0
35424836, 729, 121
35445648, 16, 0
35463332, 1, 36
35481000, 9, 49
35498668, 0, 4
35515304, 100, 9
35534036, 441, 0
35552752, 169, 16
35572512, 36, 36
35591244, 1, 9
35607880, 169, 4
35626596, 81, 4
35644264, 576, 9
35662992, 1936, 36
35683796, 64, 16
35702520, 0, 0
35719140, 361, 9
35737880, 16, 9
35755568, 144, 9
35774276, 36, 1
35791968, 4, 0
35808604, 36, 1
35826280, 25, 0
35843952, 144, 9
35862680, 361, 0
35881396, 9, 1
35898036, 49, 9
35915712, 484, 25
35935468, 676, 25
35955236, 2809, 81
35976024, 2809, 225
35997872, 0, 49
36015548, 1600, 64
36036344, 225, 49
36056120, 1681, 25
36076916, 1156, 64
36097716, 0, 4
36114348, 256, 25
36134120, 1024, 81
36154928, 49, 9
36172604, 36, 4
36190284, 121, 16
36210048, 16, 1
36227716, 1296, 81
36248512, 676, 49
36268280, 256, 9
36287000, 1849, 4
36306740, 121, 9
36325476, 484, 0
36344192, 169, 25
36363956, 144, 36
36383688, 1024, 25
36404512, 2704, 121
36426344, 900, 144
36447156, 9, 4
36463808, 169, 1
36482512, 225, 9
36501232, 2809, 121
36523084, 625, 196
36543884, 1, 25
36561552, 49, 9
36579228, 9, 16
36596916, 225, 0
36615636, 529, 36
36635392, 289, 9
36654120, 1156, 100
36675968, 441, 9
36694668, 484, 4
36713384, 576, 64
36733152, 81, 36
36751864, 225, 81
36771640, 1, 1
36788280, 1, 16
36805960, 196, 9
36824680, 100, 9
36843400, 36, 49
36862128, 225, 0
36880832, 121, 4
36899548, 0, 4
36916192, 16, 16
36934936, 196, 4
36953644, 256, 9
36972356, 196, 4
36991076, 64, 1
37008752, 784, 1
37027472, 1600, 121
37049308, 16, 49
37068048, 841, 49
37087792, 289, 25
37107564, 100, 4
37126288, 484, 1
37145012, 9, 1
37161628, 25, 9
37179304, 361, 1
37198040, 225, 25
37217812, 196, 9
37236524, 576, 25
37256284, 400, 49
37276036, 576, 25
37295796, 169, 64
37315540, 100, 16
37335316, 196, 36
37355084, 81, 4
37372756, 49, 9
37390452, 225, 4
37409156, 25, 0
37426832, 0, 0
37443472, 25, 0
37461156, 361, 9
37479876, 324, 49
37499644, 4, 0
37516272, 4, 1
37532928, 576, 49
37552676, 625, 36
37572440, 9, 1
37589076, 529, 9
37607796, 361, 49
37627552, 529, 16
37647304, 1296, 121
37669156, 1444, 9
37688924, 25, 36
37707632, 1, 25
37725316, 841, 1
37744056, 784, 81
37763800, 441, 81
37783548, 100, 9
37802280, 196, 4
37820984, 0, 16
37838672, 1296, 9
37858432, 2116, 169
37880284, 1681, 81
37901076, 196, 49
37920836, 225, 4
37939552, 625, 36
37959312, 484, 64
37979072, 361, 16
37998840, 324, 36
38018604, 81, 36
38037320, 9, 0
38053968, 9, 1
38070600, 0, 0
38087228, 64, 4
38104912, 196, 25
38124672, 196, 9
38143408, 49, 4
38161072, 36, 4
38178744, 441, 16
38198520, 400, 49
38218280, 676, 16
38238024, 1024, 49
38258840, 576, 100
38279640, 529, 25
38299396, 9, 9
38316028, 121, 0
38334752, 361, 25
38354508, 625, 64
38374260, 625, 4
38392988, 1225, 81
38413784, 676, 0
38432504, 1444, 121
38454364, 36, 1
38472052, 144, 4
38490756, 9, 16
38508428, 1024, 4
38528192, 324, 0
38546912, 576, 16
38566668, 625, 64
38586448, 9, 49
38604124, 4, 16
38621788, 25, 9
38639480, 1, 25
38657160, 144, 1
38675876, 400, 4
38694592, 64, 1
38712268, 9, 16
38729960, 9, 0
38746584, 49, 16
38765312, 64, 0
38782996, 9, 0
38799620, 729, 64
38819380, 1024, 121
38841240, 4, 4
38857892, 0, 1
38874520, 529, 1
38893224, 2704, 16
38914024, 3025, 121
38935884, 100, 100
38956676, 2025, 100
38978500, 0, 169
38997236, 2116, 25
39018036, 841, 64
39037792, 256, 1
39056516, 324, 4
39075232, 1681, 64
39096012, 2601, 289
39117876, 225, 49
39137636, 9, 0
39154268, 5776, 225
39176100, 4624, 529
39197960, 576, 100
39218736, 16, 9
39236416, 196, 0
39255140, 225, 64
39274908, 1369, 64
39295704, 529, 36
39315484, 49, 16
39334200, 121, 9
39352912, 576, 0
39371628, 121, 1
39390364, 1, 4
39406984, 144, 16
39426744, 25, 25
39445460, 36, 0
39463156, 324, 0
39481872, 900, 36
39501636, 361, 4
39520352, 225, 81
39540108, 676, 1
39558828, 4356, 289
39580676, 2304, 256
39602520, 144, 36
39622268, 1764, 16
39643060, 841, 81
39662832, 25, 36
39681560, 400, 9
39700268, 16, 16
39718996, 256, 1
39737724, 9, 4
39754348, 144, 49
39774112, 256, 0
39792836, 4, 9
39809464, 1089, 144
39831324, 196, 81
39851064, 2401, 64
39871880, 6084, 121
39893708, 16, 25
39912416, 1764, 4
39932212, 0, 1
39948840, 256, 9
39967548, 16, 0
39985240, 529, 0
40003948, 841, 25
40023704, 8464, 225
40045548, 1089, 289
40067404, 900, 4
40086116, 1156, 36
40106912, 961, 9
40125636, 1089, 81
40146432, 2116, 100
40168268, 7569, 144
40190104, 6561, 529
40211936, 2401, 256
40233784, 3721, 81
40254592, 4900, 400
40276416, 7056, 441
40298272, 1156, 169
40320116, 729, 1
40338836, 1156, 49
40359616, 625, 36
40379384, 289, 64
40399164, 100, 0
40417868, 400, 64
40437644, 4, 1
40454284, 225, 1
40472996, 676, 64
40492752, 900, 25
40512508, 289, 0
40531232, 2209, 64
40552024, 8281, 400
40573848, 4489, 324
40595700, 3364, 100
40617544, 100, 144
40638348, 1369, 4
40658112, 169, 169
40678924, 169, 64
40698680, 1, 49
40716364, 4, 36
40734036, 9, 1
40750676, 64, 16
40769392, 9, 36
40787080, 100, 4
40805800, 900, 121
40826584, 1369, 9
40846352, 1600, 16
40867164, 441, 144
40887956, 49, 9
40905624, 2209, 0
40925396, 1764, 144
40947248, 961, 4
40965956, 5184, 625
40987800, 3249, 196
41009628, 625, 16
41029388, 196, 36
41049156, 1521, 16
41069956, 2116, 196
41091796, 1225, 9
41111548, 1, 1
41128180, 4, 16
41145868, 625, 9
41164584, 256, 0
41183312, 121, 0
41202040, 169, 49
41221792, 36, 4
41239468, 256, 0
41258200, 1089, 144
41280040, 529, 100
41300828, 81, 0
41318532, 400, 36
41338276, 784, 121
41359072, 144, 4
41377788, 49, 0
41395464, 2916, 100
41417296, 1936, 196
41439136, 1369, 4
41458904, 2601, 121
41480740, 1296, 4
41500508, 49, 16
41519244, 1369, 1
41538988, 256, 196
41559788, 256, 0
41578520, 1936, 121
41600368, 4, 1
41616992, 1600, 121
41638832, 324, 25
41658604, 0, 0
41675232, 16, 49
41693956, 16, 9
41711636, 4, 0
41728276, 16, 16
41747004, 1, 1
41763624, 9, 16
41781312, 9, 4
41797952, 49, 0
41815628, 49, 1
41833312, 16, 4
41851008, 225, 1
41869720, 729, 36
41889472, 784, 36
41909224, 1024, 1
41928992, 841, 9
41947708, 196, 16
41967468, 4, 4
41984124, 16, 1
42001796, 25, 1
42019468, 0, 9
42036116, 121, 0
42054844, 196, 1
42073556, 36, 1
42091236, 4, 1
42107876, 36, 1
42125560, 4, 9
42142204, 1, 1
42158840, 25, 1
42176508, 1, 4
42193156, 9, 1
42209788, 1, 1
42226432, 16, 4
42244128, 100, 0
42262844, 4, 4
42279472, 16, 0
42297148, 64, 0
42314840, 49, 9
42332512, 196, 0
42351228, 144, 36
42370992, 4, 0
42387640, 16, 1
42405312, 361, 9
42424032, 324, 4
42442760, 4, 4
42459404, 25, 0
42477076, 1, 1
42493708, 36, 0
42511400, 81, 0
42529076, 9, 0
42545716, 4, 9
42562348, 0, 4
42578996, 1, 4
42595644, 36, 0
42613316, 225, 9
42632028, 100, 1
42650756, 1, 1
42667392, 49, 0
42685080, 441, 16
42704832, 121, 16
42724600, 36, 1
42742268, 81, 16
42761000, 4, 16
42778672, 64, 1
42796356, 36, 1
42814032, 0, 1
42830668, 16, 1
42848368, 36, 16
42867076, 81, 4
42884744, 529, 16
42904500, 324, 64
42924288, 0, 9
42940908, 121, 0
42959628, 36, 0
42977324, 100, 4
42996044, 576, 16
43015796, 289, 9
43034520, 16, 4
43052204, 4, 1
43068840, 9, 0
43085468, 16, 0
43103148, 4, 9
43119796, 100, 0
43138520, 64, 9
43156200, 1, 1
43172820, 16, 4
43190516, 0, 1
43207156, 49, 9
43224840, 1, 4
43241464, 16, 4
43259156, 16, 0
43276836, 49, 1
43294512, 0, 1
43311164, 0, 1
43327796, 256, 0
43346516, 441, 9
43365232, 121, 4
43383960, 0, 0
43400596, 16, 4
43418276, 144, 1
43436988, 64, 9
43454676, 49, 16
43473384, 100, 9
43492116, 1, 16
43509808, 121, 4
43528520, 289, 0
43547236, 81, 9
43564920, 25, 4
43582608, 196, 0
43601320, 256, 4
43620036, 9, 4
43636660, 0, 1
43653324, 1, 0
43669948, 25, 0
43687632, 9, 4
43704272, 49, 0
43721956, 36, 4
43739632, 0, 25
43757308, 81, 0
43775004, 144, 9
43793724, 4, 4
43810356, 1, 0
43826992, 100, 1
43845720, 169, 16
43865480, 4, 25
43883156, 256, 0
43901864, 324, 9
43920600, 49, 16
43939312, 49, 0
43956996, 100, 4
43975728, 1, 1
43992372, 4, 0
44009008, 81, 1
44026668, 49, 4
44044364, 0, 0
44061004, 1, 0
44077644, 9, 9
44094272, 256, 9
44113000, 361, 36
44132768, 196, 1
44151468, 49, 1
44169148, 49, 4
44186840, 81, 1
44204516, 16, 1
44222192, 0, 1
44238824, 1, 0
44255484, 9, 0
44272112, 4, 0
44288744, 256, 4
44307484, 196, 4
44326200, 4, 4
44342832, 81, 1
44360516, 4, 16
44378200, 169, 0
44396924, 1, 4
44413560, 144, 0
44432280, 289, 9
44451008, 36, 9
44468672, 36, 0
44486352, 25, 0
44504028, 9, 0
44520680, 64, 4
44538360, 625, 4
44557076, 441, 16
44576836, 0, 4
44593484, 289, 9
44612192, 64, 16
44630908, 256, 0
44649628, 841, 16
44669400, 144, 16
44689152, 36, 0
44706832, 16, 0
44724516, 49, 0
44742200, 121, 9
44760928, 25, 1
44778600, 49, 4
44796276, 100, 0
44815000, 64, 4
44832668, 25, 0
44850356, 9, 1
44867000, 144, 1
44885716, 121, 9
44904428, 4, 0
44921076, 144, 4
44939800, 169, 4
44958512, 100, 4
44977240, 196, 16
44997004, 225, 16
45016752, 16, 0
45034420, 144, 0
45053160, 25, 0
45070836, 36, 1
45088520, 81, 4
45106196, 196, 1
45124920, 676, 16
45144668, 16, 16
45163400, 1, 1
45180036, 9, 0
45196672, 36, 4
45214360, 25, 1
45232032, 81, 1
45249728, 144, 1
45268428, 64, 9
45286112, 81, 4
45303784, 25, 1
45321476, 49, 0
45339168, 121, 0
45357872, 196, 0
45376588, 484, 0
45395312, 784, 16
45415068, 324, 36
45434832, 49, 1
45452516, 36, 0
45470192, 100, 4
45488912, 169, 0
45507644, 169, 1
45526368, 169, 9
45545080, 0, 1
45561708, 64, 1
45579392, 0, 0
45596044, 81, 1
45613716, 225, 1
45632428, 9, 1
45649072, 81, 1
45666748, 4, 9
45683388, 0, 4
45700024, 9, 0
45716680, 16, 0
45734348, 25, 0
45752036, 49, 1
45769712, 64, 1
45787404, 64, 9
45805076, 25, 4
45822752, 225, 4
45841484, 81, 16
45860204, 9, 4
45876832, 16, 1
45894512, 0, 0
45911164, 16, 4
45928836, 225, 16
45948596, 256, 4
45967312, 1, 1
45983960, 81, 16
46002676, 196, 16
46022432, 121, 9
46041164, 16, 0
46058844, 16, 4
46076504, 16, 0
46094200, 49, 4
46111884, 36, 4
46129556, 0, 0
46146188, 9, 0
46162832, 25, 1
46180520, 121, 1
46199236, 49, 1
46216920, 49, 0
46234588, 100, 4
46253324, 9, 4
46269948, 1, 1
46286592, 1, 4
46303228, 121, 1
46321956, 441, 16
46341712, 361, 25
46361472, 225, 16
46381236, 9, 4
46397884, 0, 0
46414516, 16, 0
46432188, 16, 0
46449876, 49, 4
46467556, 4, 9
46484192, 64, 0
46501868, 256, 4
46520596, 81, 1
46538292, 4, 1
46554916, 64, 1
46572604, 100, 1
46591316, 81, 0
46608992, 36, 1
46626672, 0, 1
46643320, 36, 0
46661004, 9, 16
46678680, 16, 0
46696352, 144, 4
46715076, 169, 9
46733788, 49, 4
46751476, 1, 0
46768108, 0, 0
46784764, 25, 1
46802436, 0, 4
46819076, 16, 1
46836760, 169, 0
46855484, 256, 9
46874192, 196, 16
46893948, 400, 16
46913712, 81, 16
46932440, 121, 0
46951156, 289, 9
46969880, 225, 1
46988604, 100, 4
47007308, 16, 1
47025000, 0, 9
47041640, 0, 0
47058296, 1, 1
47074912, 16, 1
47092604, 49, 1
47110280, 121, 0
47129000, 324, 1
47147708, 144, 9
47166436, 1, 1
47183072, 36, 0
47200764, 4, 16
47218436, 49, 1
47236128, 4, 1
47252760, 36, 9
47270444, 0, 0
47287076, 16, 9
47304764, 49, 0
47322440, 36, 0
47340124, 1, 1
47356752, 121, 0
47375484, 169, 9
47394200, 1, 4
47410832, 64, 1
47428512, 16, 0
47446200, 256, 9
47464912, 121, 4
47483628, 25, 1
47501300, 9, 1
47517960, 9, 1
47534596, 64, 9
47552276, 1, 9
47568920, 324, 0
47587640, 225, 25
47607388, 121, 1
47626116, 0, 0
47642756, 169, 0
47661484, 16, 16
47680200, 25, 1
47697856, 36, 4
47715556, 49, 1
47733232, 144, 1
47751948, 900, 16
47771716, 256, 36
47791488, 9, 0
47808112, 1, 4
47824752, 256, 1
47843476, 225, 9
47862188, 16, 1
47879872, 16, 0
47897548, 100, 1
47916284, 25, 16
47935012, 1, 1
47951640, 49, 1
47969320, 64, 9
47986996, 25, 9
48004664, 16, 1
48022356, 16, 1
48040048, 36, 4
48057716, 1, 0
48074352, 36, 1
48092036, 196, 1
48110756, 625, 9
48129476, 324, 25
48149240, 9, 0
48165872, 576, 25
48185636, 576, 9
48204348, 0, 4
48220988, 100, 1
48239720, 169, 4
48258436, 361, 1
48277160, 100, 25
48296908, 25, 4
48314608, 64, 4
48332276, 1, 25
48349964, 1, 1
48366596, 81, 1
48384284, 225, 25
48404028, 9, 4
48420668, 49, 0
48438352, 441, 16
48458116, 121, 16
48477884, 25, 4
48495552, 100, 9
48514272, 81, 64
48532992, 100, 4
48551724, 1, 9
48568360, 169, 1
48587080, 49, 9
48604760, 1, 1
48621396, 121, 4
48640120, 100, 9
48658852, 1, 0
48675476, 49, 0
48693148, 144, 0
48711876, 1, 9
48728504, 400, 1
48747228, 256, 36
48766996, 36, 1
48784680, 49, 0
48802360, 256, 16
48822116, 256, 4
48840844, 1, 1
48857484, 9, 0
48874124, 121, 1
48892836, 64, 4
48910516, 144, 0
48929232, 121, 9
48947952, 49, 4
48965640, 9, 0
48982288, 100, 4
49001000, 169, 16
49020764, 36, 4
49038440, 0, 4
49055076, 81, 4
49072756, 169, 4
49091472, 361, 4
49110200, 81, 9
49127864, 196, 0
49146596, 400, 25
49166360, 64, 36
49185080, 4, 4
49201720, 36, 0
49219400, 196, 1
49238116, 256, 16
49257888, 1, 1
49274508, 529, 4
49293224, 256, 9
49311968, 64, 4
49329640, 64, 4
49347316, 1, 4
49363948, 64, 1
49381636, 225, 4
49400352, 81, 25
49419076, 16, 0
49436764, 4, 1
49453400, 36, 0
49471076, 0, 1
49487708, 49, 1
49505400, 81, 1
49523080, 81, 1
49540752, 4, 0
49557384, 9, 0
49574040, 16, 0
49591716, 169, 0
49610436, 64, 1
49628112, 81, 4
49645796, 81, 1
49663472, 0, 0
49680116, 144, 9
49698840, 324, 25
49718596, 4, 1
49735228, 25, 4
49752916, 16, 1
49770600, 49, 0
49788276, 64, 1
49805964, 36, 1
49823632, 0, 0
49840288, 36, 4
49857960, 225, 16
49877712, 144, 4
49896432, 1, 1
49913080, 1, 0
49929720, 9, 1
49946360, 36, 1
49964040, 81, 1
49981716, 400, 9
50000436, 121, 9
50019156, 9, 0
50035796, 169, 1
50054524, 4, 4
50071160, 64, 1
50088844, 9, 9
50105484, 0, 0
50122124, 25, 1
50139792, 1, 0
50156428, 81, 4
50174120, 36, 9
50191792, 9, 0
50208440, 1, 0
50225072, 49, 1
50242756, 196, 9
50261468, 25, 9
50279148, 4, 9
50295792, 36, 1
50313480, 64, 4
50331164, 9, 1
50347788, 0, 4
50364440, 0, 1
50381080, 0, 1
50397720, 0, 0
50414356, 4, 1
50431000, 0, 0
50447636, 4, 1
50464284, 1, 4
50480920, 49, 1
50498596, 144, 4
50517316, 121, 9
50536028, 100, 1
50554756, 16, 4
50572440, 9, 4
50589076, 64, 9
50606748, 25, 1
50624424, 4, 4
50641076, 4, 1
50657712, 36, 0
50675388, 169, 9
50694104, 49, 9
50711800, 0, 0
50728440, 64, 1
50746112, 4, 0
50762756, 64, 0
50780432, 49, 0
50798132, 4, 9
50814744, 441, 0
50833480, 400, 25
50853244, 100, 4
50871948, 4, 0
50888596, 1, 1
50905240, 64, 0
50922936, 4, 1
50939552, 36, 4
50957228, 25, 9
50974920, 25, 0
50992604, 144, 4
51011320, 36, 1
51029000, 49, 1
51046676, 361, 9
51065396, 169, 9
51084112, 16, 0
51101804, 25, 0
51119476, 100, 0
51138184, 625, 9
51156900, 144, 16
51176684, 1, 0
51193316, 1, 1
51209952, 4, 1
51226592, 49, 1
51244272, 49, 0
51261948, 25, 0
51279632, 16, 0
51297316, 0, 1
51313952, 4, 0
51330600, 4, 0
51347232, 36, 16
51365952, 9, 1
51382592, 0, 1
51399236, 9, 1
51415868, 0, 0
51432520, 0, 4
51449156, 36, 0
51466840, 1, 1
51483472, 100, 0
51502196, 169, 0
51520916, 64, 0
51538592, 25, 0
51556268, 16, 1
51573960, 81, 0
51591636, 324, 9
51610352, 196, 16
51630124, 100, 4
51648836, 36, 9
51666508, 16, 1
51684188, 9, 1
51700840, 4, 0
51717480, 49, 1
51735156, 9, 4
51751788, 25, 1
51769484, 25, 4
51787156, 0, 1
51803788, 1, 1
51820424, 9, 0
51837084, 4, 1
51853720, 9, 0
51870356, 0, 0
51887000, 9, 0
51903636, 1, 0
51920280, 9, 1
51936908, 4, 1
51953556, 25, 1
51971244, 1, 0
51987880, 16, 9
52005560, 49, 4
52023228, 64, 9
52040916, 49, 4
52058600, 49, 9
52076276, 9, 1
52092900, 49, 16
52111644, 9, 0
52128284, 9, 1
52144916, 25, 1
52162596, 1, 1
52179248, 0, 0
52195876, 0, 0
52212516, 1, 4
52229152, 9, 0
52245800, 0, 4
52262444, 25, 0
52280104, 16, 25
52298832, 0, 64
52316516, 9, 9
52333156, 9, 1
52349792, 0, 9
52366436, 1, 1
52383080, 0, 1
52399712, 4, 4
52416360, 1, 1
52433008, 1, 0
52449636, 4, 4
52466268, 0, 0
52482908, 0, 0
52499556, 0, 4
52516196, 1, 1
52532828, 0, 0
52549476, 0, 0
52566116, 0, 4
52582756, 0, 4
52599396, 1, 0
52616032, 0, 1
52632676, 0, 1
52649312, 1, 1
52665956, 1, 0
52682584, 0, 0
52699240, 0, 1
52715888, 1, 1
52732508, 4, 1
52749148, 1, 4
52765804, 1, 0
52782444, 0, 0
52799072, 0, 1
52815712, 0, 1
52832352, 0, 0
52848996, 0, 4
52865636, 0, 0
52882276, 0, 0
52898920, 0, 1
52915556, 0, 0
52932196, 1, 0
52948832, 0, 0
52965476, 0, 1
52982112, 1, 0
52998760, 1, 1
53015388, 0, 1
53032032, 0, 0
53048676, 1, 1
53065316, 0, 0
53081956, 0, 0
53098596, 0, 0
53115240, 1, 1
53131868, 0, 0
53148512, 4, 0
53165164, 4, 0
53181804, 1, 0
53198440, 1, 0
53215068, 0, 0
53231720, 0, 1
53248356, 0, 0
53264992, 0, 0
53281640, 1, 0
53298280, 4, 1
53314920, 0, 1
53331548, 0, 0
53348192, 0, 1
53364836, 0, 0
53381488, 0, 1
53398112, 0, 4
53414756, 0, 1
53431400, 0, 9
53448036, 0, 4
53464680, 0, 0
53481316, 0, 0
53497960, 0, 1
53514596, 0, 0
53531228, 0, 0
53547868, 0, 1
53564528, 1, 0
53581164, 0, 0
53597792, 0, 4
53614436, 1, 0
53631072, 25, 0
53648756, 49, 1
53666428, 16, 9
53684116, 0, 0
53700756, 1, 1
53717400, 0, 9
53734028, 1, 0
53750668, 1, 0
53767312, 0, 1
53783956, 0, 1
53800592, 0, 0
53817240, 1, 1
53833876, 0, 0
53850512, 0, 1
53867152, 1, 4
53883796, 0, 0
53900440, 0, 0
53917076, 1, 1
53933708, 0, 0
53950356, 0, 0
53967000, 0, 0
53983644, 1, 1
54000272, 0, 0
54016916, 0, 1
54033556, 0, 1
54050196, 0, 0
54066824, 0, 1
54083476, 0, 0
54100120, 0, 1
54116760, 1, 4
54133388, 0, 0
54150028, 0, 1
54166680, 9, 4
54183324, 1, 0
54199952, 0, 0
54216592, 0, 4
54233236, 1, 0
54249884, 1, 0
54266516, 0, 1
54283148, 4, 0
54299796, 4, 0
54316436, 0, 0
54333072, 0, 1
54349712, 0, 1
54366356, 16, 4
54384032, 9, 0
54400668, 0, 4
54417312, 0, 1
54433960, 0, 1
54450596, 0, 4
54467240, 0, 1
54483872, 0, 1
54500516, 0, 0
54517160, 0, 0
54533800, 4, 1
54550432, 0, 1
54567076, 1, 1
54583716, 0, 4
54600356, 1, 0
54616996, 1, 1
54633636, 0, 1
54650276, 0, 0
54666912, 0, 0
54683544, 0, 1
54700196, 0, 0
54716836, 0, 1
54733476, 0, 0
54750112, 1, 4
54766756, 0, 1
54783404, 1, 0
54800036, 1, 0
54816668, 25, 0
54834356, 9, 0
54850988, 0, 0
54867628, 0, 0
54884272, 1, 1
54900916, 0, 0
54917556, 4, 0
54934188, 0, 1
54950828, 0, 0
54967472, 0, 4
54984112, 0, 9
55000744, 0, 0
55017380, 4, 0
55034044, 16, 1
55051708, 0, 0
55068348, 0, 1
55084992, 0, 1
55101636, 0, 1
55118276, 0, 0
55134912, 0, 4
55151544, 0, 1
55168200, 1, 4
55184832, 0, 4
55201476, 4, 0
55218112, 1, 1
55234756, 0, 0
55251388, 1, 0
55268040, 4, 1
55284660, 0, 1
55301316, 0, 1
55317960, 0, 1
55334596, 0, 1
55351224, 0, 0
55367876, 0, 1
55384508, 0, 1
55401148, 0, 0
55417792, 0, 0
55434440, 1, 1
55451068, 0, 0
55467708, 1, 1
55484340, 4, 1
55500992, 1, 4
55517636, 1, 0
55534276, 1, 0
55550900, 0, 0
55567556, 0, 0
55584200, 1, 0
55600840, 1, 1
55617472, 0, 1
55634120, 0, 1
55650748, 0, 1
55667396, 0, 0
55684032, 0, 1
55700684, 1, 0
55717316, 0, 1
55733956, 1, 0
55750592, 0, 1
55767244, 0, 0
55783864, 1, 0
55800508, 4, 0
55817156, 4, 1
55833800, 0, 1
55850428, 0, 0
55867072, 1, 1
55883712, 4, 1
55900364, 0, 0
55916996, 1, 4
55933640, 1, 1
55950260, 0, 0
55966916, 0, 4
55983548, 0, 1
56000192, 0, 4
56016828, 0, 0
56033476, 0, 1
56050108, 0, 0
56066752, 0, 1
56083380, 0, 0
56100036, 0, 4
56116672, 0, 1
56133320, 1, 1
56149944, 0, 1
56166596, 0, 1
56183224, 0, 0
56199868, 0, 1
56216504, 0, 1
56233156, 0, 0
56249788, 1, 1
56266428, 0, 1
56283060, 0, 0
56299720, 0, 1
56316356, 0, 0
56332988, 0, 0
56349624, 0, 0
56366288, 1, 4
56382908, 0, 1
56399552, 0, 0
56416184, 0, 1
56432836, 0, 0
56449468, 0, 1
56466112, 0, 1
56482744, 0, 1
56499400, 0, 1
56516032, 0, 0
56532680, 1, 0
56549304, 0, 1
56565952, 0, 0
56582596, 0, 0
56599236, 1, 0
56615872, 0, 4
56632516, 0, 1
56649148, 0, 0
56665788, 0, 0
56682428, 0, 0
56699080, 1, 0
56715716, 1, 0
56732348, 0, 0
56748980, 1, 0
56765636, 0, 0
56782268, 4, 4
56798920, 4, 9
56815540, 9, 0
56832192, 4, 0
56848832, 0, 1
56865472, 0, 1
56882100, 0, 0
56898752, 0, 1
56915400, 1, 1
56932036, 1, 1
56948660, 0, 0
56965320, 0, 4
56981956, 1, 0
56998596, 0, 1
57015232, 0, 0
57031876, 0, 0
57048512, 0, 4
57065148, 0, 0
57081780, 0, 0
57098440, 0, 9
57115072, 0, 1
57131724, 1, 0
57148356, 0, 1
57164996, 0, 0
57181636, 1, 0
57198268, 0, 1
57214912, 0, 0
57231552, 0, 0
57248196, 1, 0
57264828, 0, 1
57281468, 0, 4
57298120, 0, 4
57314748, 0, 1
57331388, 0, 1
57348024, 0, 4
57364676, 0, 0
57381308, 0, 1
57397960, 1, 4
57414584, 0, 1
57431240, 0, 1
57447880, 1, 4
57464516, 1, 0
57481144, 0, 1
57497796, 0, 1
57514424, 0, 0
57531076, 1, 0
57547704, 0, 0
57564360, 1, 1
57580996, 0, 0
57597636, 0, 1
57614272, 1, 0
57630920, 1, 0
57647544, 0, 0
57664192, 0, 1
57680820, 1, 1
57697476, 0, 4
57714120, 0, 1
57730752, 0, 0
57747384, 1, 0
57764036, 0, 0
57780664, 0, 4
57797304, 0, 16
57814992, 1, 0
57831644, 1, 0
57848276, 0, 1
57864908, 1, 0
57881544, 0, 4
57898196, 0, 1
57914832, 0, 0
57931476, 1, 1
57948104, 0, 4
57964760, 9, 0
57981396, 1, 0
57998036, 0, 1
58014668, 0, 0
58031316, 0, 4
58047960, 1, 9
58064588, 0, 1
58081220, 0, 0
58097876, 1, 0
58114516, 0, 1
58131152, 0, 1
58147796, 1, 16
58165476, 0, 0
58182108, 0, 0
58198748, 0, 1
58215392, 4, 1
58232040, 0, 1
58248668, 0, 1
58265312, 0, 1
58281952, 1, 1
58298596, 0, 0
58315232, 4, 0
58331880, 0, 1
58348512, 0, 0
58365156, 0, 0
58381796, 1, 0
58398436, 0, 1
58415064, 1, 0
58431724, 1, 0
58448348, 0, 1
58464996, 1, 0
58481632, 1, 1
58498280, 4, 1
58514920, 0, 1
58531548, 0, 1
58548180, 0, 0
58564836, 0, 0
58581468, 0, 4
58598112, 0, 4
58614752, 0, 4
58631396, 0, 4
58648028, 0, 0
58664672, 0, 0
58681304, 0, 1
58697956, 0, 0
58714596, 0, 4
58731236, 0, 0
58747872, 0, 0
58764520, 0, 1
58781148, 0, 1
58797788, 0, 0
58814428, 1, 0
58831088, 4, 1
58847716, 4, 0
58864360, 1, 1
58880980, 0, 0
58897636, 0, 4
58914268, 0, 4
58930916, 4, 0
58947552, 0, 1
58964212, 1, 9
58980828, 0, 0
58997472, 1, 0
59014116, 0, 0
59030768, 0, 1
59047396, 0, 1
59064040, 0, 4
59080668, 0, 1
59097312, 0, 0
59113956, 0, 1
59130588, 0, 1
59147224, 0, 0
59163880, 0, 1
59180508, 1, 0
59197156, 1, 0
59213784, 0, 1
59230436, 0, 1
59247072, 0, 0
59263708, 1, 9
59280344, 0, 1
59297004, 4, 0
59313636, 1, 0
59330276, 1, 0
59346912, 0, 0
59363556, 0, 0
59380188, 0, 0
59396824, 0, 4
59413468, 1, 1
59430116, 1, 1
59446756, 0, 0
59463388, 0, 1
59480024, 1, 1
59496676, 0, 1
59513308, 0, 1
59529956, 0, 0
59546588, 0, 0
59563240, 0, 4
59579868, 0, 0
59596512, 0, 0
59613152, 0, 0
59629796, 0, 1
59646436, 0, 0
59663072, 1, 4
59679704, 0, 0
59696360, 0, 1
59712996, 0, 1
59729636, 0, 0
59746260, 0, 0
59762920, 0, 1
59779556, 0, 0
59796192, 0, 0
59812820, 0, 1
59829476, 0, 1
59846116, 1, 0
59862760, 1, 1
59879380, 0, 0
59896032, 0, 1
59912672, 1, 4
59929304, 0, 0
59945948, 1, 0
59962604, 1, 16
59980276, 9, 16
59997944, 4, 4
60014592, 9, 0
60031232, 4, 0
60047868, 0, 4
60064508, 0, 4
60081148, 1, 0
60097796, 0, 1
60114432, 0, 0
60131076, 1, 4
60147708, 0, 0
60164360, 0, 4
60180996, 0, 25
60198672, 1, 1
60215316, 0, 0
60231964, 1, 1
60248604, 0, 1
60265236, 0, 4
60281884, 0, 9
60298528, 1, 0
60315156, 0, 0
60331796, 1, 0
60348436, 0, 1
60365080, 0, 1
60381728, 1, 9
60398348, 0, 0
60415000, 0, 1
60431640, 1, 0
60448276, 0, 1
60464912, 0, 1
60481572, 1, 1
60498204, 0, 4
60514836, 0, 0
60531472, 1, 1
60548120, 0, 1
60564756, 0, 1
60581408, 1, 4
60598028, 0, 0
60614676, 0, 1
60631312, 1, 1
60647964, 0, 0
60664596, 0, 0
60681236, 0, 0
60697876, 0, 0
60714516, 0, 4
60731160, 0, 1
60747808, 1, 0
60764448, 0, 1
60781080, 0, 4
60797708, 0, 0
60814360, 0, 1
60831004, 0, 0
60847640, 1, 4
60864268, 0, 0
60880916, 0, 1
60897556, 0, 0
60914204, 1, 0
60930836, 1, 0
60947484, 1, 0
60964124, 0, 0
60980760, 0, 1
60997388, 0, 0
61014040, 0, 1
61030680, 0, 0
61047324, 1, 9
61063956, 0, 0
61080596, 1, 4
61097236, 1, 0
61113872, 0, 0
61130520, 0, 1
61147160, 0, 0
61163800, 0, 4
61180440, 0, 1
61197072, 0, 1
61213716, 0, 0
61230368, 1, 1
61247008, 0, 1
61263640, 1, 1
61280276, 0, 1
61296920, 0, 1
61313556, 0, 0
61330196, 0, 0
61346848, 0, 1
61363484, 1, 0
61380124, 1, 1
61396748, 0, 1
61413396, 0, 0
61430036, 0, 0
61446684, 0, 0
61463320, 0, 1
61479964, 1, 0
61496596, 0, 0
61513236, 0, 1
61529884, 1, 1
61546524, 1, 0
61563156, 0, 1
61579808, 0, 0
61596428, 0, 0
61613076, 1, 4
61629712, 1, 0
61646364, 0, 4
61662996, 1, 0
61679636, 0, 1
61696280, 0, 1
61712916, 0, 4
61729548, 0, 1
61746204, 4, 0
61762848, 0, 1
61779488, 0, 1
61796112, 0, 0
61812756, 1, 4
61829396, 0, 0
61846044, 0, 9
61862668, 1, 1
61879312, 0, 0
61895956, 0, 4
61912604, 1, 0
61929236, 1, 1
61945884, 1, 0
61962528, 0, 1
61979156, 0, 0
61995792, 1, 1
62012432, 0, 0
62029076, 0, 0
62045720, 0, 1
62062356, 0, 0
62078996, 1, 0
62095636, 1, 0
62112280, 1, 0
62128900, 0, 0
62145556, 0, 4
62162204, 1, 0
62178848, 1, 1
62195472, 0, 1
62212116, 1, 0
62228764, 1, 0
62245404, 0, 0
62262036, 0, 0
62278676, 0, 0
62295324, 1, 1
62311956, 0, 0
62328600, 0, 0
62345244, 1, 9
62361884, 0, 1
62378516, 0, 0
62395152, 0, 1
62411800, 0, 0
62428440, 4, 0
62445080, 9, 1
62461716, 9, 0
62478356, 36, 4
62496040, 16, 1
62513712, 1, 1
62530348, 1, 0
62547004, 0, 1
62563640, 1, 1
62580268, 0, 0
62596912, 36, 1
62614596, 25, 0
62632288, 4, 0
62648908, 0, 0
62665540, 0, 0
62682196, 4, 0
62698840, 0, 1
62715472, 0, 4
62732120, 4, 0
62748752, 0, 0
62765404, 4, 9
62782036, 0, 16
62799716, 1, 9
62816360, 0, 1
62832996, 0, 0
62849628, 0, 0
62866276, 1, 0
62882924, 4, 0
62899552, 9, 0
62916192, 9, 1
62932828, 0, 0
62949480, 1, 0
62966112, 1, 0
62982748, 4, 1
62999400, 1, 4
63016036, 0, 1
63032676, 16, 0
63050352, 16, 0
63068040, 1, 1
63084672, 0, 0
63101316, 4, 0
63117956, 4, 1
63134592, 0, 4
63151232, 1, 0
63167876, 0, 1
63184512, 1, 9
63201160, 0, 1
63217796, 0, 9
63234444, 1, 4
63251068, 0, 1
63267704, 0, 9
63284356, 1, 4
63301008, 4, 0
63317636, 0, 0
63334268, 0, 0
63350920, 1, 1
63367552, 0, 0
63384192, 1, 1
63400828, 0, 0
63417484, 0, 1
63434120, 1, 9
63450752, 0, 1
63467396, 1, 0
63484032, 0, 0
63500676, 0, 4
63517316, 1, 0
63533956, 1, 1
63550596, 0, 0
63567236, 0, 4
63583868, 1, 1
63600520, 4, 1
63617156, 0, 0
63633796, 0, 0
63650428, 0, 1
63667068, 1, 4
63683720, 1, 4
63700352, 1, 0
63716996, 1, 0
63733636, 1, 0
63750280, 0, 4
63766928, 1, 0
63783556, 9, 1
63800192, 0, 1
63816836, 0, 1
63833484, 0, 1
63850116, 16, 0
63867784, 4, 0
63884444, 1, 1
63901080, 1, 0
63917720, 0, 0
63934360, 1, 0
63951008, 9, 4
63967636, 1, 0
63984276, 0, 1
64000912, 1, 1
64017560, 0, 1
64034204, 1, 0
64050828, 0, 0
64067468, 0, 0
64084120, 0, 1
64100756, 0, 9
64117400, 1, 4
64134028, 0, 0
64150676, 0, 0
64167320, 4, 0
64183956, 1, 0
64200592, 0, 0
64217236, 0, 1
64233872, 0, 0
64250516, 1, 0
64267148, 0, 0
64283796, 1, 0
64300432, 0, 0
64317076, 0, 9
64333720, 0, 1
64350356, 0, 1
64366988, 0, 0
64383636, 0, 0
64400276, 0, 1
64416916, 0, 1
64433564, 0, 1
64450188, 0, 0
64466828, 0, 0
64483480, 4, 0
64500116, 0, 9
64516752, 0, 4
64533392, 0, 4
64550036, 1, 1
64566676, 1, 0
64583304, 0, 0
64599952, 1, 1
64616596, 0, 0
64633240, 0, 0
64649884, 9, 9
64666512, 0, 1
64683156, 0, 0
64699800, 1, 1
64716424, 0, 0
64733068, 1, 0
64749720, 0, 0
64766360, 0, 1
64782992, 0, 0
64799632, 4, 0
64816280, 0, 0
64832924, 0, 0
64849552, 0, 1
64866188, 0, 0
64882836, 0, 1
64899484, 1, 1
64916108, 0, 0
64932756, 0, 1
64949400, 0, 1
64966036, 0, 0
64982676, 1, 1
64999312, 4, 9
65015960, 0, 1
65032592, 0, 0
65049232, 0, 1
65065876, 0, 0
65082520, 1, 0
65099164, 1, 4
65115792, 0, 0
65132436, 1, 0
65149080, 1, 0
65165720, 0, 1
65182348, 0, 0
65198992, 0, 0
65215636, 0, 4
65232284, 1, 0
65248916, 1, 0
65265544, 0, 0
65282192, 1, 0
65298836, 4, 1
65315476, 4, 0
65332112, 1, 0
65348760, 0, 4
65365392, 0, 0
65382036, 1, 0
65398672, 1, 0
65415316, 0, 1
65431960, 0, 1
65448592, 0, 1
65465228, 0, 0
65481876, 0, 0
65498524, 0, 0
65515156, 1, 1
65531796, 1, 0
65548440, 0, 4
65565076, 0, 0
65581708, 0, 0
65598352, 4, 0
65614996, 0, 1
65631648, 0, 1
65648272, 0, 1
65664912, 0, 1
65681552, 0, 0
65698192, 0, 4
65714840, 1, 1
65731480, 0, 1
65748120, 0, 1
65764768, 9, 0
65781388, 4, 0
65798036, 0, 0
65814684, 1, 0
65831324, 1, 1
65847952, 0, 1
65864600, 1, 0
65881236, 0, 4
65897884, 0, 1
65914504, 0, 0
65931156, 1, 0
65947800, 0, 1
65964436, 0, 0
65981068, 0, 1
65997720, 0, 9
66014364, 4, 0
66030996, 0, 0
66047632, 0, 1
66064264, 0, 0
66080912, 0, 0
66097552, 0, 1
66114188, 0, 1
66130836, 0, 1
66147484, 0, 4
66164116, 0, 0
66180744, 0, 0
66197392, 0, 0
66214036, 0, 1
66230688, 1, 0
66247316, 0, 0
66263952, 0, 1
66280596, 0, 0
66297236, 0, 1
66313868, 0, 1
66330516, 0, 0
66347156, 0, 0
66363792, 0, 0
66380428, 0, 0
66397064, 4, 1
66413716, 0, 0
66430360, 1, 0
66446988, 0, 1
66463636, 1, 0
66480276, 1, 0
66496912, 0, 0
66513544, 0, 0
66530196, 0, 4
66546840, 0, 1
66563476, 4, 0
66580108, 0, 0
66596760, 0, 1
66613396, 0, 1
66630032, 0, 0
66646664, 0, 0
66663308, 0, 0
66679956, 0, 1
66696604, 1, 1
66713236, 1, 0
66729880, 0, 4
66746520, 0, 1
66763160, 0, 0
66779788, 0, 0
66796428, 0, 0
66813080, 0, 1
66829720, 0, 1
66846348, 0, 1
66862988, 0, 0
66879640, 0, 1
66896288, 1, 1
66912916, 0, 0
66929548, 4, 1
66946196, 4, 4
66962836, 0, 0
66979464, 0, 0
66996120, 1, 0
67012752, 0, 0
67029396, 0, 0
67046040, 0, 0
67062676, 0, 0
67079324, 1, 0
67095956, 4, 0
67112596, 4, 1
67129240, 9, 1
67145884, 1, 1
67162516, 0, 0
67179148, 0, 1
67195788, 0, 0
67212432, 0, 0
67229080, 0, 4
67245712, 0, 1
67262348, 0, 0
67279000, 0, 1
67295636, 0, 1
67312280, 1, 0
67328912, 0, 1
67345556, 0, 4
67362196, 0, 0
67378828, 0, 1
67395476, 0, 0
67412116, 0, 1
67428764, 1, 0
67445392, 0, 1
67462028, 4, 0
67478680, 0, 4
67495316, 0, 1
67511952, 0, 0
67528596, 1, 0
67545236, 0, 1
67561876, 0, 1
67578504, 0, 0
67595156, 1, 0
67611804, 1, 1
67628436, 4, 1
67645076, 1, 0
67661708, 1, 0
67678356, 1, 1
67694996, 0, 0
67711636, 0, 1
67728264, 0, 0
67744916, 0, 0
67761556, 0, 4
67778188, 0, 1
67794828, 0, 1
67811476, 0, 1
67828124, 0, 0
67844756, 0, 0
67861388, 0, 0
67878036, 0, 4
67894676, 0, 0
67911312, 0, 9
67927956, 1, 1
67944604, 9, 0
67961240, 0, 1
67977868, 0, 0
67994520, 1, 1
68011156, 0, 9
68027800, 4, 0
68044424, 0, 0
68061068, 4, 0
68077720, 0, 1
68094352, 0, 0
68110996, 1, 1
68127636, 1, 0
68144276, 0, 0
68160916, 0, 0
68177548, 0, 1
68194188, 0, 0
68210832, 0, 4
68227484, 1, 0
68244108, 0, 1
68260756, 1, 0
68277396, 0, 1
68294036, 0, 0
68310664, 0, 1
68327316, 0, 4
68343952, 1, 0
68360604, 0, 1
68377240, 1, 1
68393868, 0, 0
68410512, 0, 4
68427156, 1, 0
68443796, 1, 0
68460436, 1, 0
68477080, 0, 1
68493716, 0, 0
68510352, 4, 4
68526988, 0, 0
68543636, 0, 0
68560288, 1, 1
68576908, 0, 0
68593556, 1, 0
68610208, 1, 1
68626836, 0, 0
68643480, 0, 4
68660116, 0, 16
68677796, 4, 9
68694436, 4, 9
68711076, 1, 1
68727708, 1, 0
68744356, 0, 0
68760996, 0, 0
68777628, 0, 0
68794272, 1, 0
68810912, 1, 0
68827552, 0, 0
68844188, 0, 0
68860828, 0, 1
68877468, 0, 0
68894116, 0, 1
68910748, 0, 4
68927388, 1, 0
68944040, 0, 1
68960676, 1, 0
68977308, 0, 0
68993952, 0, 1
69010592, 0, 0
69027236, 0, 4
69043872, 1, 0
69060508, 1, 0
69077152, 1, 0
69093796, 0, 1
69110436, 0, 0
69127068, 1, 0
69143720, 0, 1
69160356, 0, 0
69176984, 0, 0
69193628, 1, 4
69210280, 1, 0
69226924, 1, 1
69243556, 0, 0
69260188, 0, 1
69276836, 1, 0
69293476, 0, 4
69310116, 0, 1
69326744, 1, 0
69343392, 0, 0
69360036, 0, 0
69376672, 0, 1
69393304, 1, 0
69409956, 4, 0
69426596, 0, 1
69443236, 4, 0
69459872, 1, 0
69476520, 0, 1
69493160, 0, 1
69509784, 0, 4
69526428, 0, 0
69543080, 0, 4
69559716, 0, 0
69576348, 0, 0
69592988, 0, 1
69609648, 1, 1
69626284, 0, 1
69642924, 0, 4
69659552, 0, 1
69676196, 0, 0
69692836, 0, 0
69709464, 0, 0
69726112, 1, 0
69742756, 0, 4
69759396, 0, 4
69776036, 1, 0
69792668, 1, 0
69809324, 1, 0
69825956, 0, 1
69842592, 1, 0
69859232, 1, 1
69875876, 0, 0
69892516, 0, 1
69909160, 0, 1
69925792, 0, 1
69942448, 0, 4
69959072, 0, 0
69975712, 0, 1
69992352, 0, 0
70008996, 0, 1
70025632, 0, 4
70042268, 0, 0
70058912, 1, 0
70075556, 1, 0
70092196, 0, 0
70108824, 0, 0
70125464, 1, 0
70142116, 1, 9
70158768, 1, 1
70175388, 0, 0
70192032, 0, 1
70208672, 0, 0
70225312, 0, 4
70241956, 1, 1
70258588, 0, 1
70275236, 1, 0
70291876, 0, 1
70308504, 0, 0
70325148, 0, 9
70341804, 1, 0
70358432, 1, 0
70375076, 1, 1
70391708, 0, 0
70408364, 1, 0
70424992, 0, 4
70441640, 0, 1
70458268, 0, 1
70474916, 0, 0
70491556, 0, 0
70508192, 0, 0
70524832, 0, 1
70541476, 0, 1
70558120, 0, 0
70574752, 0, 1
70591392, 1, 0
70608044, 1, 1
70624672, 1, 4
70641304, 0, 0
70657948, 0, 0
70674600, 1, 0
70691236, 0, 0
70707868, 0, 0
70724508, 1, 1
70741156, 0, 0
70757792, 0, 0
70774432, 0, 4
70791068, 0, 1
70807716, 0, 0
70824364, 1, 1
70840996, 0, 0
70857624, 0, 0
70874280, 0, 1
70890920, 0, 1
70907544, 1, 0
70924184, 0, 4
70940836, 1, 0
70957484, 1, 0
70974116, 0, 0
70990752, 1, 0
71007396, 1, 0
71024036, 0, 1
71040668, 0, 4
71057312, 0, 1
71073956, 1, 1
71090600, 0, 1
71107236, 0, 1
71123868, 1, 1
71140520, 1, 0
71157152, 4, 0
71173788, 0, 1
71190432, 0, 0
71207072, 1, 0
71223712, 1, 4
71240352, 0, 0
71256992, 0, 1
71273648, 1, 1
71290276, 0, 0
71306908, 0, 1
71323548, 1, 4
71340204, 0, 0
71356840, 0, 0
71373480, 16, 0
71391144, 1, 0
71407796, 0, 0
71424432, 0, 0
71441076, 0, 1
71457712, 1, 9
71474368, 1, 9
71491000, 1, 1
71507628, 0, 1
71524268, 0, 0
71540916, 0, 0
71557556, 4, 0
71574192, 4, 1
71590820, 0, 0
71607476, 0, 1
71624108, 0, 0
71640756, 1, 0
71657384, 0, 1
71674048, 1, 1
71690664, 1, 0
71707304, 0, 0
71723948, 4, 0
71740592, 0, 0
71757236, 0, 4
71773880, 4, 1
71790504, 0, 0
71807156, 0, 0
71823796, 4, 0
71840440, 1, 1
71857064, 4, 1
71873720, 1, 4
71890352, 1, 0
71906988, 0, 1
71923628, 0, 0
71940284, 1, 1
71956912, 0, 0
71973552, 1, 1
71990180, 0, 0
72006832, 0, 0
72023464, 0, 1
72040108, 0, 1
72056748, 0, 0
72073396, 0, 0
72090028, 0, 1
72106668, 0, 0
72123312, 0, 1
72139956, 0, 1
72156596, 0, 0
72173228, 0, 0
72189864, 0, 0
72206516, 0, 1
72223160, 0, 1
72239792, 0, 0
72256424, 0, 4
72273080, 0, 4
72289720, 4, 1
72306348, 0, 1
72322980, 4, 1
72339640, 0, 1
72356280, 0, 0
72372908, 1, 0
72389556, 9, 1
72406196, 1, 0
72422828, 0, 0
72439468, 1, 1
72456108, 0, 9
72472760, 9, 1
72489396, 25, 4
72507076, 9, 0
72523708, 36, 0
72541404, 81, 9
72559080, 64, 0
72576748, 529, 16
72596512, 361, 9
72615240, 49, 9
72632916, 0, 1
72649560, 36, 1
72667244, 100, 16
72687004, 36, 4
72704672, 0, 16
72722352, 1, 9
72738996, 49, 0
72756664, 49, 9
72774352, 1, 49
72792032, 25, 36
72810756, 0, 0
72827392, 9, 9
72844036, 1, 36
72861724, 36, 169
72881480, 25, 9
72899152, 1, 64
72916828, 4, 1
72933472, 36, 64
72952196, 1, 784
72970920, 36, 729
72990668, 196, 121
73011472, 9, 4
73028124, 9, 49
73045784, 0, 0
73062440, 36, 64
73081168, 49, 100
73100924, 4, 1
73117564, 9, 324
73136284, 9, 484
73154996, 25, 81
73173708, 9, 1
73190356, 1, 1
73207000, 4, 49
73224668, 4, 0
73241308, 0, 0
73257940, 0, 64
73275640, 1, 1
73292272, 16, 0
73309964, 1, 1
73326600, 0, 9
73343248, 1, 9
73359880, 25, 16
73378600, 36, 196
73398360, 81, 441
73418120, 9, 121
73436840, 529, 25
73456592, 121, 1
73475324, 1, 64
73492992, 0, 16
73510680, 0, 36
73528352, 4, 256
73547068, 16, 169
73566824, 4, 1156
73586588, 36, 196
73606356, 0, 1444
73626112, 36, 676
73645868, 144, 1156
73667712, 196, 441
73688512, 225, 121
73709324, 36, 225
73729080, 1, 100
73747800, 36, 289
73767540, 484, 3136
73789384, 1089, 841
73811228, 256, 2116
73833072, 100, 4489
73854896, 256, 529
73875724, 25, 169
73895476, 1, 256
73914200, 1, 36
73931888, 49, 16
73950604, 16, 576
73970340, 25, 324
73990104, 0, 81
74007796, 25, 441
74027564, 169, 1444
74049384, 729, 1156
74071240, 256, 196
74092044, 36, 100
74111796, 25, 64
74130516, 1, 144
74149248, 81, 576
74168980, 729, 961
74189780, 324, 169
74210596, 4, 256
74229320, 0, 144
74248032, 1, 576
74266764, 4, 1225
74286520, 289, 121
74307304, 121, 400
74328124, 36, 1296
74348908, 100, 441
74369716, 49, 9
74387392, 0, 4
74404044, 16, 100
74423796, 9, 100
74442516, 4, 196
74461244, 16, 1156
74482036, 49, 441
74501800, 36, 4
74519468, 25, 1
74537156, 25, 36
74555880, 16, 1
74573548, 1, 121
74592280, 16, 64
74611000, 4, 81
74628680, 9, 81
74646348, 100, 324
74667160, 169, 1024
74688988, 169, 144
74709792, 49, 0
74727488, 0, 36
74745160, 36, 100
74764904, 100, 225
74785708, 25, 169
74805476, 25, 144
74825256, 16, 9
74842924, 9, 4
74859560, 0, 0
74876192, 64, 121
74895960, 25, 225
74915704, 49, 81
74934436, 144, 100
74955224, 49, 36
74973952, 1, 0
74990604, 1, 1
75007236, 64, 16
75025956, 16, 1
75043632, 0, 1
75060288, 1, 4
75076916, 4, 25
75094600, 9, 289
75113308, 36, 64
75132040, 16, 36
75150760, 1, 16
75168440, 0, 289
75187144, 4, 0
75203792, 1, 121
75222512, 9, 196
75241224, 0, 900
75259952, 25, 441
75279720, 16, 49
75298436, 64, 1600
75319212, 36, 2209
75340036, 324, 2209
75361880, 289, 361
75382664, 25, 81
75401396, 0, 36
75419076, 0, 196
75437800, 0, 25
75455472, 49, 256
75475240, 225, 169
75496024, 144, 289
75516832, 49, 16
75535560, 16, 121
75555312, 81, 9
75572996, 81, 1
75590684, 4, 0
75607312, 0, 121
75626036, 81, 100
75645796, 4, 4
75662428, 4, 169
75681156, 1, 729
75699876, 49, 4
75717536, 100, 81
75737320, 9, 169
75756028, 0, 841
75774748, 100, 676
75795556, 289, 400
75816360, 121, 25
75836116, 16, 1
75853780, 0, 0
75870432, 9, 25
75888116, 25, 100
75907880, 25, 144
75927648, 9, 100
75946356, 1, 25
75964024, 1, 0
75980676, 1, 196
75999404, 9, 784
76018108, 25, 324
76037880, 16, 25
76056592, 1, 400
76075324, 64, 2401
76096104, 196, 1764
76117948, 225, 576
76138764, 36, 196
76158508, 25, 0
76176192, 16, 100
76195956, 16, 256
76215724, 49, 169
76235472, 49, 36
76254184, 36, 4
76271884, 4, 1
76288516, 1, 36
76306212, 1, 324
76324932, 4, 625
76343640, 64, 100
76363404, 4, 1
76380040, 1, 1
76396676, 100, 121
76417468, 36, 64
76436200, 9, 81
76453876, 0, 36
76471556, 36, 49
76490280, 25, 4
76507964, 9, 4
76524600, 16, 0
76542268, 289, 961
76563064, 400, 361
76583860, 16, 529
76603644, 4, 49
76621312, 9, 225
76640044, 16, 1
76657720, 4, 9
76674348, 144, 225
76695160, 1, 64
76712840, 1, 0
76729496, 16, 4
76747160, 0, 25
76764828, 9, 1
76781472, 64, 1
76799172, 9, 64
76816848, 1, 9
76833476, 4, 16
76851140, 16, 361
76870912, 324, 2401
76892732, 1156, 2916
76915616, 729, 1936
76937468, 121, 169
76958268, 25, 49
76977004, 0, 121
76995716, 25, 441
77015480, 81, 400
77035236, 9, 121
77053940, 576, 1024
77075784, 196, 25
77095552, 0, 256
77114264, 25, 121
77134048, 0, 49
77151720, 49, 16
77170432, 121, 144
77191236, 400, 1156
77213076, 121, 144
77233888, 144, 36
77253640, 1, 16
77271324, 16, 121
77291076, 36, 49
77309796, 64, 0
77327480, 0, 16
77345148, 169, 2916
77366980, 961, 6889
77388832, 729, 841
77409636, 196, 121
77430440, 0, 64
77448112, 0, 49
77465804, 0, 324
77484504, 196, 961
77505316, 196, 400
77526116, 64, 1
77543804, 64, 1
77561476, 16, 144
77581228, 16, 225
77601000, 49, 36
77619720, 1, 25
77637388, 16, 9
77655088, 0, 169
77673804, 9, 169
77692528, 36, 36
77711232, 9, 676
77729968, 49, 1024
77750760, 144, 121
77771564, 9, 676
77790284, 81, 25
77809000, 9, 49
77826676, 4, 529
77845396, 0, 484
77864116, 36, 25
77882844, 100, 9
77901548, 0, 0
77918180, 36, 16
77936920, 0, 4
77953572, 1, 1
77970204, 64, 9
77987880, 64, 0
78005564, 9, 64
78023224, 256, 1681
78045060, 324, 3721
78066928, 225, 196
78087728, 144, 81
78107480, 4, 49
78125164, 4, 121
78143884, 1, 64
78161556, 49, 1
78179228, 1, 225
78197964, 25, 144
78217720, 0, 49
78235396, 9, 196
78254120, 1, 0
78270764, 16, 121
78290500, 4, 64
78308196, 0, 1156
78327952, 16, 1
78345636, 16, 961
78365396, 25, 4
78383076, 36, 4
78400764, 9, 16
78418440, 0, 121
78437168, 36, 441
78456920, 256, 121
78477712, 49, 81
78496436, 1, 576
78515152, 4, 484
78533876, 9, 324
78552604, 25, 361
78572352, 49, 144
78592128, 4, 4
78608756, 25, 361
78628528, 36, 400
78648272, 64, 100
78668044, 81, 100
78687792, 100, 841
78708596, 169, 1600
78730432, 81, 361
78750188, 25, 100
78769960, 16, 225
78789724, 100, 225
78810520, 4, 289
78829228, 196, 256
78850036, 9, 100
78868760, 9, 0
78885408, 36, 81
78904112, 100, 169
78924924, 49, 121
78944684, 25, 121
78964444, 169, 144
78985236, 361, 36
79004992, 64, 121
79024760, 4, 529
79043468, 81, 225
79063232, 100, 16
79082992, 4, 64
79100676, 1, 100
79119400, 16, 9
79137080, 16, 16
79155804, 4, 121
79174512, 9, 441
79193240, 16, 49
79211948, 0, 4
79228596, 1, 36
79246260, 49, 0
79263972, 25, 4
79281640, 16, 16
79300352, 0, 9
79316984, 81, 121
79336752, 25, 121
79356516, 1, 841
79375240, 25, 81
79393960, 36, 25
79412672, 16, 256
79432444, 36, 121
79452204, 1, 1
79468836, 64, 225
79488592, 100, 400
79509388, 144, 400
79530196, 100, 144
79551000, 16, 0
79568672, 4, 81
79586368, 9, 36
79604032, 9, 36
79621716, 36, 121
79641472, 9, 49
79659168, 4, 36
79676840, 25, 49
79695556, 0, 64
79713220, 9, 36
79730916, 0, 9
79747564, 25, 196
79767324, 25, 121
79787088, 9, 36
79804764, 1, 64
79822436, 36, 16
79841148, 49, 16
79859888, 1, 1
79876524, 16, 4
79894200, 25, 9
79911856, 64, 784
79931636, 100, 1600
79953468, 121, 256
79974276, 81, 4
79991964, 16, 9
80009640, 16, 16
80028348, 16, 169
80048100, 1, 49
80065804, 9, 169
80084524, 0, 36
80102184, 64, 625
80121968, 25, 4
80139640, 1, 144
80158352, 9, 256
80177072, 0, 9
80193716, 25, 576
80213480, 100, 400
80234276, 81, 1
80251964, 9, 1
80268596, 169, 64
80288356, 196, 100
80309152, 0, 4
80325792, 36, 289
80345556, 9, 196
80364280, 49, 1
80381948, 16, 1
80399644, 4, 4
80416280, 0, 16
80433948, 16, 16
80452684, 4, 1
80469328, 81, 36
80488024, 289, 625
80508824, 169, 1089
80530676, 144, 196
80551468, 36, 9
80569156, 36, 49
80587868, 324, 2401
80609712, 784, 6724
80631552, 841, 1156
80653408, 225, 16
80673160, 0, 4
80689800, 49, 25
80708508, 36, 100
80728276, 36, 121
80748036, 4, 1
80764688, 16, 169
80784444, 1, 9
80801084, 9, 36
80818756, 0, 16
80836428, 49, 64
80855164, 81, 16
80873880, 4, 4
80890520, 4, 0
80907148, 16, 169
80926932, 1, 196
80945632, 0, 25
80963312, 4, 4
80979956, 9, 36
80997652, 1, 16
81015324, 1, 25
81032996, 1, 121
81051716, 4, 100
81070448, 16, 81
81089140, 144, 1444
81110980, 169, 1024
81132836, 36, 484
81152584, 1, 676
81171324, 49, 16
81190048, 9, 225
81208756, 64, 169
81228508, 4, 1
81245144, 4, 36
81262836, 4, 16
81280520, 0, 36
81298196, 0, 16
81315880, 9, 36
81333560, 9, 36
81351244, 0, 1
81367880, 1, 1
81384516, 1, 1
81401160, 64, 4
81418844, 64, 1
81436524, 1, 4
81453152, 4, 361
81471884, 25, 1369
81492676, 100, 169
81513480, 121, 49
81533240, 49, 400
81552996, 169, 400
81573784, 144, 225
81594592, 0, 225
81613316, 4, 784
81632044, 4, 9
81648684, 81, 225
81668444, 144, 16
81688192, 49, 9
81705860, 16, 1600
81726668, 144, 4761
81748520, 361, 625
81769316, 256, 16
81789076, 0, 0
81805724, 9, 25
81823388, 121, 0
81842104, 9, 961
81860828, 81, 3025
81881640, 81, 484
81901396, 100, 4
81920120, 25, 1
81937808, 36, 1
81955472, 49, 400
81975220, 16, 1764
81996032, 81, 400
82015800, 169, 121
82036600, 16, 25
82055316, 1, 4
82071964, 0, 196
82090660, 36, 841
82110420, 36, 3249
82131232, 144, 625
82152036, 144, 36
82171792, 0, 0
82188448, 1, 25
82206116, 0, 36
82223796, 1, 0
82240420, 4, 289
82259164, 1, 625
82277864, 36, 169
82297632, 100, 16
82317404, 100, 36
82337160, 25, 0
82354828, 4, 4
82371472, 9, 9
82388120, 16, 36
82406828, 256, 121
82427628, 121, 9
82446364, 9, 1
82463012, 1, 9
82479636, 4, 0
82496276, 81, 9
82513956, 400, 16
82533724, 484, 81
82553476, 1, 1
82570120, 196, 144
82590916, 4, 100
82609640, 1, 1
82626276, 64, 4
82643952, 289, 25
82663724, 25, 225
82683480, 121, 169
82704272, 289, 0
82722992, 441, 36
82742752, 225, 25
82762516, 144, 4
82781244, 100, 4
82799964, 4, 1
82816600, 0, 49
82834268, 4, 25
82851960, 49, 9
82869636, 16, 9
82887316, 16, 0
82904992, 81, 9
82922672, 81, 0
82940356, 100, 25
82960124, 64, 64
82978836, 36, 1
82996520, 49, 9
83014192, 0, 4
83030840, 1, 0
83047484, 25, 0
83065156, 16, 4
83082832, 49, 0
83100508, 64, 0
83118192, 625, 49
83137956, 324, 4
83156672, 9, 36
83174348, 64, 121
83194120, 64, 36
83212840, 25, 81
83231548, 289, 25
83251320, 64, 0
83269008, 4, 1
83285632, 16, 0
83303308, 81, 16
83322040, 961, 9
83340744, 289, 25
83360512, 36, 100
83380284, 169, 64
83400044, 9, 9
83416672, 64, 0
83434360, 4, 0
83451004, 0, 1
83467636, 1, 0
83484268, 36, 1
83501952, 361, 16
83521724, 81, 25
83540432, 121, 1
83559160, 144, 9
83577868, 9, 0
83594516, 0, 1
83611168, 16, 4
83628832, 36, 0
83646524, 1, 1
83663152, 64, 0
83680828, 4, 1
83697480, 81, 1
83715156, 4, 16
83732836, 9, 0
83749464, 25, 0
83767148, 16, 0
83784840, 25, 4
83802516, 16, 1
83820192, 4, 1
83836832, 0, 1
83853476, 1, 1
83870124, 16, 1
83887804, 25, 0
83905476, 1, 1
83922124, 1, 0
83938748, 0, 1
83955396, 1, 1
83972024, 121, 1
83990760, 361, 16
84010516, 25, 9
84028196, 1, 4
84044840, 9, 4
84061484, 0, 0
84078116, 1, 1
84094756, 4, 1
84111408, 4, 1
84128036, 64, 9
84145716, 36, 25
84164428, 4, 0
84181080, 0, 1
84197716, 9, 1
84214356, 4, 1
84230996, 9, 0
84247640, 100, 0
84266352, 25, 0
84284040, 1, 0
84300672, 0, 1
84317316, 0, 1
84333956, 0, 1
84350592, 1, 0
84367240, 1, 1
84383880, 4, 4
84400520, 100, 1
84419240, 49, 1
84436912, 1, 4
84453552, 0, 1
84470180, 0, 0
84486828, 9, 4
84503460, 9, 9
84520124, 1, 0
84536756, 4, 1
84553384, 4, 1
84570020, 0, 1
84586672, 0, 1
84603308, 1, 1
84619948, 0, 0
84636576, 0, 4
84653236, 0, 4
84669876, 16, 1
84687560, 0, 0
84704188, 0, 0
84720840, 25, 9
84738508, 4, 0
84755156, 0, 1
84771788, 1, 9
84788444, 4, 0
84805084, 4, 1
84821724, 4, 9
84838352, 0, 0
84854996, 0, 1
84871628, 25, 1
84889320, 36, 1
84906992, 1, 4
84923640, 1, 0
84940288, 1, 1
84956920, 4, 1
84973548, 1, 0
84990208, 16, 1
85007872, 1, 0
85024520, 16, 0
85042204, 0, 1
85058844, 1, 1
85075476, 0, 1
85092116, 1, 4
85108764, 1, 0
85125396, 16, 0
85143080, 4, 0
85159720, 4, 1
85176360, 0, 1
85192992, 0, 0
85209640, 0, 1
85226280, 4, 1
85242928, 9, 1
85259560, 0, 1
85276196, 0, 0
85292836, 0, 1
85309476, 1, 4
85326120, 0, 1
85342760, 1, 0
85359392, 0, 4
85376036, 1, 0
85392672, 0, 0
85409328, 0, 1
85425956, 0, 0
85442596, 0, 0
85459240, 0, 4
85475888, 4, 1
85492516, 1, 0
85509164, 0, 1
85525796, 4, 1
85542448, 9, 4
85559068, 0, 0
85575720, 1, 1
85592356, 0, 0
85609004, 1, 4
85625636, 0, 0
85642276, 0, 1
85658932, 1, 1
85675552, 0, 0
85692192, 1, 0
85708844, 1, 4
85725476, 4, 1
85742116, 9, 0
85758760, 0, 0
85775400, 0, 1
85792032, 0, 0
85808672, 4, 1
85825316, 0, 1
85841964, 0, 1
85858600, 4, 1
85875244, 0, 0
85891876, 1, 0
85908512, 0, 1
85925164, 1, 0
85941808, 1, 0
85958436, 0, 9
85975088, 4, 0
85991720, 1, 0
86008352, 0, 0
86024996, 9, 0
86041632, 4, 0
86058288, 1, 4
86074916, 0, 1
86091556, 0, 0
86108196, 0, 1
86124844, 1, 0
86141472, 0, 0
86158120, 1, 1
86174760, 0, 1
86191392, 0, 0
86208040, 0, 4
86224676, 1, 0
86241312, 4, 0
86257964, 9, 4
86274608, 36, 1
86292272, 4, 1
86308916, 0, 1
86325560, 0, 0
86342196, 0, 1
86358840, 0, 4
86375476, 0, 0
86392116, 0, 4
86408756, 1, 9
86425396, 0, 0
86442040, 0, 0
86458680, 0, 1
86475316, 1, 1
86491944, 0, 0
86508592, 0, 9
86525240, 1, 0
86541872, 0, 0
86558512, 1, 1
86575160, 1, 0
86591796, 0, 1
86608436, 1, 1
86625076, 4, 1
86641712, 4, 0
86658360, 1, 4
86675000, 0, 0
86691628, 0, 1
86708272, 1, 1
86724916, 0, 1
86741552, 0, 0
86758196, 0, 1
86774848, 4, 1
86791480, 0, 0
86808104, 4, 4
86824744, 0, 0
86841408, 1, 1
86858052, 4, 4
86874684, 16, 4
86892356, 1, 0
86908992, 0, 0
86925636, 0, 4
86942276, 4, 1
86958904, 4, 0
86975560, 0, 4
86992204, 0, 0
87008828, 0, 1
87025472, 1, 4
87042124, 0, 0
87058756, 0, 0
87075404, 0, 4
87092028, 0, 1
87108672, 0, 0
87125312, 0, 9
87141956, 1, 0
87158596, 1, 0
87175244, 0, 1
87191876, 0, 0
87208516, 4, 0
87225156, 16, 4
87242844, 0, 0
87259476, 0, 4
87276120, 0, 9
87292760, 0, 0
87309404, 1, 4
87326040, 1, 16
87343708, 9, 1
87360348, 16, 1
87378036, 1, 0
87394680, 0, 4
87411320, 1, 0
87427956, 0, 1
87444596, 9, 1
87461236, 16, 0
87478908, 1, 1
87495552, 0, 1
87512200, 0, 1
87528832, 1, 0
87545464, 1, 4
87562120, 4, 1
87578768, 9, 1
87595400, 0, 1
87612028, 0, 0
87628676, 1, 4
87645324, 16, 4
87662992, 0, 0
87679628, 0, 1
87696276, 0, 1
87712924, 16, 0
87730592, 16, 0
87748272, 1, 0
87764900, 0, 1
87781564, 4, 0
87798196, 1, 0
87814844, 1, 1
87831468, 16, 1
87849164, 4, 0
87865780, 0, 0
87882428, 0, 1
87899064, 0, 0
87915716, 4, 0
87932356, 1, 1
87948988, 1, 0
87965620, 0, 0
87982276, 1, 4
87998912, 1, 0
88015556, 0, 1
88032192, 16, 1
88049884, 4, 0
88066508, 0, 1
88083156, 0, 1
88099792, 1, 1
88116436, 1, 0
88133080, 4, 4
88149704, 4, 0
88166336, 4, 0
88183000, 0, 0
88199636, 25, 1
88217320, 25, 0
88234996, 0, 0
88251640, 0, 0
88268268, 0, 4
88284904, 0, 4
88301548, 1, 1
88318192, 0, 0
88334840, 0, 1
88351480, 9, 4
88368108, 1, 0
88384760, 0, 1
88401396, 1, 0
88418040, 4, 1
88434664, 0, 4
88451312, 1, 0
88467948, 0, 1
88484596, 4, 0
88501228, 9, 0
88517888, 9, 1
88534520, 0, 1
88551160, 25, 4
88568836, 1, 4
88585476, 1, 1
88602112, 0, 9
88618760, 4, 1
88635388, 1, 0
88652044, 1, 1
88668676, 1, 0
88685312, 1, 0
88701956, 9, 1
88718596, 1, 0
88735236, 0, 0
88751876, 0, 1
88768516, 1, 1
88785152, 0, 0
88801796, 9, 9
88818436, 0, 0
88835076, 0, 0
88851720, 1, 1
88868360, 0, 1
88884992, 1, 0
88901624, 16, 9
88919320, 0, 1
88935964, 0, 0
88952592, 0, 1
88969244, 1, 0
88985872, 9, 0
89002512, 36, 0
89020196, 36, 1
89037884, 4, 0
89054516, 0, 0
89071156, 0, 4
89087804, 0, 1
89104436, 0, 1
89121076, 0, 9
89137716, 4, 1
89154356, 1, 0
89171004, 0, 4
89187636, 4, 0
89204272, 1, 0
89220916, 1, 9
89237552, 0, 0
89254200, 4, 0
89270832, 0, 4
89287476, 0, 0
89304124, 9, 0
89320768, 16, 4
89338436, 0, 1
89355080, 0, 1
89371716, 0, 4
89388352, 4, 0
89404996, 1, 1
89421632, 16, 4
89439312, 0, 0
89455956, 0, 1
89472596, 0, 1
89489232, 0, 0
89505876, 4, 1
89522524, 1, 0
89539152, 0, 1
89555796, 0, 1
89572436, 1, 1
89589084, 0, 1
89605712, 0, 0
89622356, 1, 1
89639004, 9, 4
89655640, 0, 1
89672276, 1, 0
89688912, 0, 1
89705556, 0, 1
89722192, 4, 0
89738832, 4, 4
89755480, 0, 0
89772116, 0, 0
89788768, 9, 0
89805400, 0, 1
89822036, 1, 0
89838684, 4, 1
89855316, 4, 0
89871948, 0, 0
89888596, 0, 1
89905240, 0, 1
89921872, 0, 0
89938516, 0, 9
89955156, 4, 1
89971808, 9, 1
89988436, 0, 0
90005068, 0, 9
90021712, 0, 0
90038356, 16, 4
90056036, 9, 0
90072676, 4, 0
90089320, 1, 0
90105972, 1, 1
90122604, 1, 1
90139228, 9, 1
90155868, 16, 1
90173552, 0, 0
90190200, 1, 4
90206836, 1, 0
90223468, 1, 1
90240112, 1, 4
90256756, 1, 0
90273396, 4, 1
90290032, 0, 1
90306680, 4, 0
90323328, 1, 1
90339956, 1, 4
90356596, 0, 0
90373244, 0, 4
90389888, 1, 1
90406520, 1, 1
90423152, 0, 1
90439788, 0, 0
90456432, 1, 0
90473080, 4, 1
90489720, 9, 1
90506368, 0, 0
90522992, 0, 0
90539628, 0, 0
90556268, 0, 1
90572920, 0, 0
90589556, 9, 0
90606192, 64, 4
90623872, 16, 4
90641552, 0, 4
90658204, 1, 9
90674836, 1, 0
90691476, 0, 0
90708132, 1, 4
90724752, 0, 0
90741384, 0, 4
90758028, 0, 4
90774684, 0, 0
90791328, 0, 1
90807952, 0, 9
90824600, 1, 0
90841232, 0, 1
90857876, 0, 1
90874520, 9, 1
90891152, 0, 0
90907804, 9, 1
90924448, 1, 0
90941076, 1, 0
90957708, 16, 1
90975400, 1, 1
90992040, 16, 4
91009708, 9, 0
91026348, 1, 0
91042996, 0, 4
91059624, 0, 0
91076276, 4, 4
91092908, 0, 0
91109564, 1, 0
91126192, 9, 9
91142828, 0, 0
91159464, 1, 1
91176112, 0, 9
91192756, 0, 1
91209392, 0, 0
91226028, 4, 1
91242680, 4, 0
91259316, 9, 1
91275944, 9, 9
91292592, 0, 0
91309236, 0, 0
91325880, 1, 4
91342508, 0, 1
91359144, 1, 0
91375796, 0, 4
91392444, 1, 4
91409072, 0, 0
91425716, 1, 4
91442368, 1, 1
91458984, 1, 0
91475628, 0, 4
91492268, 1, 1
91508928, 1, 1
91525556, 1, 9
91542188, 1, 0
91558820, 4, 1
91575476, 16, 4
91593144, 0, 0
91609792, 0, 0
91626432, 1, 1
91643076, 0, 0
91659708, 1, 1
91676356, 1, 1
91692980, 4, 0
91709640, 1, 0
91726276, 0, 1
91742920, 1, 1
91759544, 25, 0
91777232, 9, 1
91793864, 0, 0
91810508, 0, 4
91827148, 0, 0
91843812, 9, 4
91860436, 1, 1
91877064, 4, 0
91893696, 25, 4
91911392, 16, 0
91929068, 0, 0
91945716, 4, 1
91962344, 1, 1
91978996, 0, 1
91995636, 1, 4
92012268, 0, 1
92028900, 0, 0
92045560, 1, 1
92062204, 1, 0
92078836, 16, 4
92096508, 9, 4
92113164, 1, 1
92129792, 1, 0
92146444, 1, 0
92163080, 1, 9
92179716, 0, 1
92196348, 1, 1
92213000, 1, 4
92229628, 0, 0
92246276, 9, 0
92262908, 4, 0
92279552, 0, 1
92296188, 9, 4
92312840, 81, 9
92330528, 25, 1
92348200, 0, 4
92364844, 0, 9
92381480, 9, 0
92398124, 4, 0
92414752, 0, 0
92431388, 0, 0
92448036, 0, 4
92464684, 0, 1
92481316, 0, 1
92497956, 25, 1
92515636, 16, 4
92533312, 0, 0
92549952, 1, 1
92566592, 0, 16
92584280, 1, 9
92600920, 1, 0
92617560, 4, 0
92634208, 9, 1
92650840, 0, 0
92667476, 4, 0
92684124, 1, 0
92700768, 4, 4
92717404, 1, 1
92734024, 0, 4
92750676, 1, 1
92767324, 0, 0
92783956, 0, 0
92800596, 1, 0
92817228, 0, 1
92833876, 1, 1
92850524, 1, 1
92867148, 1, 1
92883804, 9, 1
92900436, 0, 0
92917072, 0, 4
92933708, 0, 1
92950356, 4, 1
92967004, 0, 1
92983648, 0, 1
93000280, 9, 0
93016912, 0, 1
93033548, 0, 0
93050196, 4, 4
93066828, 0, 1
93083472, 0, 0
93100128, 1, 4
93116764, 1, 1
93133384, 1, 1
93150028, 0, 1
93166684, 0, 0
93183316, 0, 0
93199952, 0, 0
93216584, 4, 16
93234280, 1, 4
93250928, 1, 1
93267556, 1, 0
93284196, 0, 0
93300844, 4, 1
93317476, 49, 9
93335148, 9, 1
93351796, 1, 4
93368432, 0, 0
93385072, 1, 0
93401708, 4, 1
93418348, 4, 0
93434996, 4, 4
93451636, 1, 9
93468276, 1, 0
93484916, 1, 0
93501556, 0, 4
93518204, 1, 0
93534828, 36, 4
93552508, 25, 1
93570192, 0, 0
93586836, 0, 1
93603476, 0, 4
93620112, 0, 9
93636768, 1, 0
93653400, 1, 0
93670036, 1, 4
93686680, 0, 1
93703324, 4, 0
93719960, 1, 1
93736596, 0, 0
93753236, 1, 1
93769884, 4, 16
93787564, 0, 1
93804200, 0, 4
93820836, 0, 9
93837488, 0, 0
93854128, 16, 1
93871784, 16, 4
93889460, 0, 1
93906108, 0, 0
93922748, 0, 0
93939392, 0, 1
93956036, 0, 1
93972684, 4, 0
93989312, 1, 4
94005948, 0, 1
94022584, 0, 0
94039244, 0, 1
94055884, 0, 1
94072520, 1, 1
94089144, 0, 4
94105796, 9, 4
94122428, 4, 0
94139084, 0, 1
94155712, 4, 0
94172352, 1, 0
94188988, 0, 1
94205636, 4, 1
94222268, 0, 0
94238932, 1, 1
94255560, 1, 1
94272196, 1, 0
94288824, 0, 0
94305484, 4, 1
94322116, 1, 0
94338760, 4, 4
94355392, 0, 0
94372032, 0, 0
94388664, 0, 4
94405308, 4, 0
94421944, 4, 0
94438600, 0, 1
94455236, 0, 0
94471868, 0, 1
94488508, 1, 1
94505164, 1, 0
94521792, 1, 0
94538440, 1, 4
94555064, 0, 0
94571716, 0, 1
94588356, 4, 4
94604988, 0, 0
94621628, 1, 0
94638280, 0, 0
94654924, 1, 9
94671552, 0, 0
94688188, 1, 4
94704844, 1, 1
94721480, 0, 0
94738112, 4, 4
94754740, 0, 0
94771396, 0, 1
94788028, 0, 1
94804668, 0, 0
94821312, 1, 0
94837960, 0, 1
94854596, 4, 0
94871224, 0, 0
94887868, 4, 1
94904516, 0, 0
94921156, 0, 1
94937792, 1, 4
94954428, 0, 1
94971076, 0, 1
94987712, 1, 4
95004348, 0, 0
95020984, 0, 4
95037648, 4, 4
95054268, 0, 0
95070904, 0, 0
95087536, 1, 1
95104196, 1, 0
95120828, 0, 0
95137484, 1, 4
95154112, 1, 0
95170756, 1, 1
95187396, 0, 4
95204036, 0, 1
95220672, 0, 0
95237320, 0, 4
95253960, 1, 0
95270588, 0, 1
95287224, 1, 4
95303876, 0, 0
95320516, 0, 1
95337164, 0, 4
95353792, 1, 0
95370436, 0, 4
95387064, 0, 4
95403716, 1, 1
95420340, 0, 0
95437000, 1, 1
95453632, 0, 1
95470276, 1, 1
95486900, 4, 1
95503556, 0, 4
95520192, 1, 0
95536840, 1, 4
95553460, 0, 0
95570116, 0, 0
95586756, 0, 1
95603396, 4, 0
95620032, 0, 4
95636680, 1, 1
95653308, 0, 0
95669948, 0, 4
95686588, 1, 4
95703240, 0, 0
95719876, 1, 1
95736524, 0, 9
95753152, 4, 0
95769792, 0, 0
95786432, 0, 4
95803076, 0, 0
95819708, 0, 0
95836360, 0, 1
95853000, 0, 1
95869636, 9, 0
95886256, 4, 1
95902916, 0, 1
95919548, 0, 1
95936200, 4, 1
95952832, 0, 1
95969484, 1, 1
95986112, 1, 0
96002748, 0, 4
96019388, 1, 0
96036048, 0, 4
96052676, 1, 0
96069308, 0, 1
96085944, 1, 0
96102592, 0, 9
96119232, 1, 0
96135868, 9, 0
96152508, 0, 0
96169160, 0, 1
96185796, 0, 1
96202432, 0, 1
96219072, 0, 1
96235716, 0, 1
96252352, 0, 1
96268996, 1, 1
96285628, 1, 0
96302272, 0, 4
96318920, 0, 1
96335556, 1, 1
96352184, 0, 1
96368840, 0, 1
96385464, 0, 0
96402104, 0, 1
96418752, 0, 4
96435396, 1, 1
96452032, 0, 1
96468672, 0, 1
96485304, 0, 0
96501964, 1, 4
96518600, 0, 1
96535244, 0, 1
96551872, 9, 0
96568516, 0, 4
96585152, 1, 1
96601784, 0, 1
96618432, 0, 1
96635080, 0, 4
96651708, 0, 0
96668348, 0, 0
96684988, 0, 1
96701632, 0, 0
96718268, 0, 4
96734908, 0, 0
96751560, 4, 4
96768200, 4, 0
96784832, 1, 0
96801472, 1, 1
96818112, 0, 1
96834760, 0, 0
96851392, 4, 1
96868028, 0, 0
96884668, 0, 0
96901312, 0, 1
96917960, 0, 1
96934588, 0, 0
96951228, 0, 1
96967876, 0, 0
96984512, 0, 0
97001156, 1, 4
97017784, 0, 1
97034436, 1, 0
97051072, 0, 4
97067716, 1, 0
97084344, 1, 0
97101004, 1, 1
97117636, 0, 4
97134268, 0, 0
97150916, 1, 1
97167556, 1, 0
97184196, 4, 0
97200828, 0, 4
97217468, 1, 0
97234124, 0, 0
97250760, 9, 0
97267396, 1, 1
97284020, 0, 1
97300672, 0, 16
97318356, 0, 1
97334992, 0, 0
97351636, 1, 1
97368280, 0, 1
97384908, 0, 0
97401556, 4, 1
97418192, 0, 1
97434844, 1, 16
97452512, 0, 4
97469160, 1, 1
97485796, 1, 1
97502436, 1, 1
97519072, 0, 4
97535716, 1, 0
97552352, 4, 1
97569004, 0, 0
97585624, 0, 9
97602264, 1, 9
97618908, 1, 0
97635560, 0, 1
97652196, 0, 1
97668832, 0, 1
97685468, 1, 0
97702112, 4, 0
97718748, 0, 1
97735396, 0, 4
97752024, 0, 4
97768680, 0, 4
97785312, 0, 1
97801956, 0, 1
97818588, 0, 1
97835236, 0, 4
97851868, 0, 1
97868520, 4, 0
97885148, 0, 1
97901804, 0, 0
97918428, 1, 1
97935080, 0, 1
97951700, 0, 0
97968364, 0, 1
97984988, 0, 1
98001632, 0, 0
98018272, 1, 4
98034916, 0, 0
98051560, 1, 1
98068196, 1, 0
98084828, 0, 1
98101480, 0, 0
98118104, 0, 4
98134756, 1, 0
98151396, 1, 1
98168048, 1, 1
98184664, 9, 0
98201312, 9, 0
98217948, 1, 9
98234608, 4, 0
98251240, 1, 0
98267884, 1, 1
98284504, 0, 1
98301152, 0, 0
98317796, 4, 4
98334436, 1, 1
98351068, 0, 1
98367724, 4, 1
98384348, 0, 0
98400996, 1, 0
98417624, 0, 1
98434280, 1, 1
98450920, 1, 4
98467556, 1, 0
98484184, 0, 1
98500840, 1, 0
98517468, 0, 4
98534112, 9, 0
98550748, 0, 0
98567408, 4, 9
98584028, 0, 4
98600676, 1, 0
98617312, 1, 1
98633952, 16, 0
98651640, 16, 0
98669320, 1, 1
98685948, 0, 0
98702596, 0, 1
98719232, 0, 0
98735864, 0, 9
98752508, 1, 0
98769164, 0, 1
98785804, 1, 0
98802440, 0, 0
98819064, 1, 0
98835712, 1, 0
98852348, 4, 4
98869004, 1, 4
98885628, 1, 0
98902280, 0, 1
98918900, 4, 0
98935548, 0, 1
98952188, 0, 0
98968840, 0, 1
98985468, 0, 0
99002108, 0, 1
99018740, 0, 1
99035396, 0, 1
99052040, 0, 0
99068676, 0, 0
99085324, 1, 1
99101960, 0, 1
99118584, 0, 0
99135232, 1, 1
99151860, 0, 1
99168532, 1, 1
99185164, 0, 1
99201800, 4, 1
99218428, 1, 1
99235080, 9, 0
99251720, 1, 1
99268360, 1, 1
99284980, 0, 0
99301636, 0, 1
99318276, 1, 0
99334904, 0, 1
99351560, 1, 1
99368204, 1, 0
99384844, 1, 1
99401480, 0, 1
99418108, 4, 0
99434764, 1, 4
99451396, 9, 0
99468028, 4, 1
99484664, 0, 1
99501320, 0, 1
99517944, 0, 0
99534596, 1, 1
99551236, 0, 1
99567892, 4, 1
99584524, 1, 1
99601160, 1, 0
99617788, 0, 0
99634444, 1, 1
99651080, 1, 4
99667708, 0, 1
99684340, 0, 4
99701004, 1, 0
99717636, 1, 0
99734276, 1, 4
99750916, 0, 0
99767564, 1, 0
99784204, 4, 1
99800828, 0, 0
99817464, 1, 0
99834120, 1, 1
99850756, 0, 0
99867392, 1, 0
99884020, 1, 0
99900676, 0, 4
99917304, 0, 0
99933956, 0, 4
99950592, 1, 4
99967244, 0, 1
99983872, 16, 4
100001556, 0, 0
100019236, 0, 1
100036924, 0, 0
100054596, 1, 4
100072276, 0, 0
100089956, 0, 1
100107648, 0, 1
100125328, 0, 1
100142996, 0, 0
100160676, 0, 0
100178348, 0, 1
100196024, 0, 1
100213712, 0, 1
100231404, 1, 0
100249076, 4, 0
100266768, 1, 1
100284444, 9, 1
100302112, 1, 0
100319788, 0, 1
100337468, 0, 0
100355164, 1, 1
100372836, 0, 1
100390524, 0, 1
100408188, 0, 0
100425884, 0, 1
100443568, 4, 0
100461236, 1, 0
100478904, 1, 0
100496592, 0, 0
100514272, 0, 4
100531952, 0, 0
100549640, 4, 1
100567316, 1, 0
100585012, 0, 1
100602668, 0, 0
100620356, 0, 1
100638044, 0, 0
100655700, 0, 0
100673396, 0, 1
100691076, 0, 0
100708760, 1, 0
100726428, 0, 1
100744108, 0, 4
100761796, 0, 0
100779468, 0, 0
100797152, 0, 1
100814824, 0, 0
100832516, 0, 4
100850204, 0, 0
100867872, 0, 0
100885556, 1, 0
100903244, 0, 1
100920920, 0, 0
100938592, 1, 0
100956272, 0, 0
100973960, 1, 0
100991628, 4, 0
101009308, 1, 0
101027000, 0, 0
101044684, 1, 4
101062360, 0, 0
101080028, 1, 0
101097712, 4, 0
101115392, 1, 0
101133072, 1, 4
101150752, 0, 0
101168444, 1, 0
101186104, 0, 0
101203796, 0, 1
101221480, 0, 0
101239156, 0, 0
101256824, 0, 0
101274508, 4, 0
101292204, 1, 1
101309872, 1, 0
101327556, 0, 1
101345228, 0, 0
101362932, 1, 1
101380600, 0, 1
101398276, 0, 0
101415960, 0, 1
101433640, 0, 0
101451308, 0, 1
101468984, 0, 0
101486692, 0, 1
101504360, 0, 0
101522040, 4, 4
101539720, 1, 0
101557396, 0, 1
101575072, 0, 0
101592756, 1, 1
101610420, 0, 0
101628116, 0, 1
101645792, 0, 0
101663472, 0, 0
101681164, 0, 1
101698848, 0, 0
101716516, 0, 1
101734184, 0, 0
101751884, 1, 1
101769552, 0, 0
101787224, 0, 0
101804920, 1, 0
101822604, 1, 0
101840288, 0, 1
101857948, 0, 0
101875616, 1, 0
101893316, 9, 1
101910996, 1, 9
101928672, 0, 0
101946352, 0, 0
101964032, 0, 0
101981724, 0, 1
101999404, 4, 1
102017084, 4, 0
102034760, 1, 0
102052436, 4, 0
102070116, 4, 1
102087796, 0, 0
102105476, 0, 0
102123152, 0, 0
102140844, 0, 4
102158528, 1, 0
102176196, 1, 0
102193868, 0, 1
102211544, 0, 0
102229232, 0, 4
102246916, 0, 0
102264596, 0, 0
102282280, 0, 0
102299972, 1, 4
102317628, 0, 0
102335320, 0, 1
102352992, 0, 0
102370676, 9, 1
102388352, 4, 0
102406036, 4, 4
102423720, 81, 4
102442428, 16, 1
102461136, 36, 36
102480912, 529, 0
102500672, 784, 100
102522512, 484, 36
102543300, 324, 25
102564116, 9, 64
102582828, 0, 0
102600520, 1, 9
102618200, 9, 0
102635876, 4, 0
102653544, 16, 0
102672268, 0, 4
102689956, 1, 16
102708680, 16, 1
102727396, 81, 4
102746116, 36, 1
102764836, 16, 4
102783564, 1, 9
102801236, 49, 0
102819960, 81, 1
102838684, 36, 0
102857392, 9, 1
102875064, 9, 4
102892764, 0, 0
102910436, 9, 9
102928116, 0, 0
102945788, 4, 0
102963488, 64, 0
102982196, 121, 1
103001960, 1, 9
103019640, 0, 0
103037316, 100, 1
103057068, 81, 1
103075780, 49, 0
103094512, 36, 9
103113240, 16, 4
103131952, 324, 16
103152756, 121, 16
103173556, 16, 1
103192280, 81, 0
103210984, 100, 4
103230756, 4, 1
103248424, 0, 4
103266120, 1, 1
103283804, 1, 0
103301480, 1, 4
103319152, 16, 25
103338912, 4, 0
103356604, 9, 0
103374276, 0, 1
103391960, 100, 16
103412752, 1, 16
103431476, 484, 9
103451232, 9, 81
103469952, 169, 0
103489720, 36, 4
103508444, 289, 9
103528188, 0, 81
103546908, 3600, 9
103567732, 6889, 676
103590592, 3600, 484
103613468, 3844, 256
103636368, 0, 196
103656100, 3844, 144
103678972, 3364, 400
103701868, 8464, 25
103723712, 400, 121
103745528, 289, 0
103765316, 2916, 9
103786112, 1681, 196
103808976, 676, 36
103829788, 1936, 0
103850596, 784, 1
103870344, 12769, 729
103894272, 3025, 900
103917152, 121, 0
103936912, 676, 4
103956680, 841, 0
103976444, 4, 196
103996188, 484, 25
104016992, 324, 64
104037788, 289, 1
104057556, 484, 0
104077304, 225, 36
104098108, 6400, 100
104120968, 12100, 1024
104145932, 4225, 324
104168828, 484, 1
104188592, 900, 1
104208340, 121, 16
104229152, 25, 9
104247868, 400, 16
104268680, 676, 4
104288440, 25, 16
104308196, 49, 25
104327936, 1369, 4
104348756, 900, 100
104370596, 16, 64
104390348, 441, 0
104410108, 25, 0
104428840, 625, 9
104448588, 64, 16
104468344, 3969, 225
104491232, 5329, 256
104514104, 625, 100
104535964, 81, 1
104554664, 2401, 100
104577548, 4225, 324
104600424, 841, 225
104622256, 0, 4
104639944, 3136, 36
104661788, 961, 196
104683636, 2209, 1
104704436, 900, 100
104726276, 49, 1
104744996, 784, 25
104765788, 1936, 225
104788668, 1156, 64
104810520, 289, 0
104830284, 4, 16
104848996, 16, 16
104868756, 1, 1
104886428, 1849, 1
104907220, 5184, 121
104930124, 81, 169
104950912, 289, 49
104971716, 361, 0
104991468, 196, 121
105013324, 144, 4
105033092, 144, 25
105053880, 81, 16
105073624, 64, 9
105092356, 25, 64
105112116, 16, 9
105130836, 144, 16
105151636, 0, 25
105170356, 16, 16
105190116, 256, 36
105210912, 2401, 64
105232756, 4356, 81
105254596, 2304, 196
105277492, 729, 64
105298272, 2809, 81
105320100, 5476, 729
105342968, 4096, 441
105365876, 5476, 36
105387712, 5041, 361
105410572, 5184, 400
105433464, 4761, 169
105456352, 121, 121
105478196, 9, 0
105495876, 676, 1
105515640, 4, 4
105533316, 441, 25
105554132, 256, 1
105573876, 0, 25
105592596, 9, 0
105610284, 121, 9
105630036, 0, 0
105647724, 16, 4
105666428, 729, 25
105687244, 1296, 169
105710120, 625, 36
105730916, 121, 36
105751720, 25, 36
105771480, 9, 9
105789152, 36, 25
105808920, 36, 25
105828672, 81, 0
105847392, 484, 64
105868192, 441, 64
105889012, 4, 0
105906676, 4, 36
105925392, 625, 0
105945164, 2025, 64
105966996, 1156, 49
105988832, 784, 9
106008604, 1764, 36
106030428, 81, 81
106050176, 289, 4
106069952, 441, 9
106089720, 484, 64
106110512, 121, 0
106130268, 1444, 81
106152124, 1600, 16
106173956, 225, 16
106194756, 484, 16
106215564, 1089, 16
106237400, 16, 4
106256124, 64, 0
106274844, 49, 0
106293556, 81, 0
106312276, 1, 0
106329960, 484, 4
106349728, 484, 9
106369472, 64, 9
106388176, 676, 9
106407956, 1156, 81
106429804, 441, 49
106450596, 289, 1
106470352, 9, 9
106488036, 36, 4
106506732, 9, 0
106524432, 961, 4
106544200, 961, 64
106565004, 196, 36
106585804, 0, 0
106603460, 676, 0
106623236, 2401, 16
106645076, 4, 9
106662752, 400, 36
106683568, 0, 0
106701232, 121, 9
106720984, 2209, 81
106742832, 2500, 121
106765716, 100, 1
106785452, 3844, 121
106808360, 2704, 169
106831240, 900, 100
106853064, 2116, 49
106874912, 3844, 121
106897796, 2916, 144
106920664, 2209, 81
106942516, 324, 64
106963324, 1, 1
106981000, 196, 1
107000748, 961, 64
107021552, 1024, 64
107043396, 100, 9
107063136, 484, 0
107082908, 1369, 64
107104752, 16, 16
107124516, 441, 36
107145312, 361, 9
107165084, 25, 1
107183780, 196, 4
107203540, 16, 16
107223308, 3600, 81
107245136, 13689, 576
107269052, 19044, 676
107292996, 1681, 441
107315876, 484, 0
107335620, 676, 16
107356432, 961, 16
107377228, 144, 49
107398032, 225, 9
107417804, 361, 0
107437556, 529, 100
107459400, 16, 9
107478128, 36, 4
107496840, 0, 1
107514516, 81, 0
107533228, 529, 4
107553000, 324, 4
107572772, 441, 25
107593548, 1681, 36
107615388, 2500, 169
107638264, 3600, 144
107661160, 2025, 100
107684044, 16, 100
107704816, 961, 1
107724588, 2401, 121
107747484, 289, 121
107769324, 324, 1
107789072, 361, 49
107809876, 529, 9
107829636, 36, 9
107848356, 2704, 25
107870184, 900, 81
107891000, 1, 4
107908688, 16, 0
107927396, 196, 25
107948192, 484, 64
107968976, 2704, 121
107991864, 9025, 100
108014756, 3025, 289
108037628, 1024, 121
108060512, 1296, 121
108083404, 484, 64
108104192, 576, 25
108124984, 2025, 169
108147868, 6241, 400
108170740, 10609, 529
108194664, 5625, 400
108217552, 256, 144
108239412, 0, 25
108258112, 16, 4
108276836, 121, 4
108296608, 144, 16
108317404, 121, 4
108337148, 16, 16
108356908, 576, 0
108376668, 3969, 121
108399552, 961, 289
108421400, 36, 0
108440128, 9, 1
108457796, 49, 36
108477552, 9, 64
108496276, 324, 81
108517076, 1089, 0
108537888, 121, 9
108557652, 484, 1
108577388, 49, 64
108597148, 841, 9
108616912, 1600, 64
108638768, 2304, 0
108659556, 1444, 64
108681396, 25, 36
108701144, 196, 64
108721952, 169, 4
108741724, 169, 25
108762528, 529, 1
108782284, 676, 4
108802032, 676, 81
108822836, 1936, 36
108844668, 100, 1
108864420, 3969, 81
108886280, 784, 144
108908124, 4, 9
108925808, 16, 4
108944500, 400, 0
108964260, 4225, 169
108987156, 1156, 225
109010048, 0, 9
109027732, 0, 1
109045384, 841, 4
109065140, 1936, 225
109088036, 361, 49
109108820, 1156, 144
109131716, 3364, 121
109154604, 36, 16
109174344, 2304, 0
109195144, 2809, 25
109216992, 729, 144
109238836, 529, 36
109259624, 784, 36
109280432, 49, 64
109300188, 0, 1
109317884, 16, 1
109336604, 16, 4
109355320, 0, 0
109372996, 121, 9
109392756, 729, 9
109412516, 361, 9
109432276, 9, 1
109449956, 100, 9
109469724, 100, 4
109489476, 144, 4
109509240, 9, 9
109526924, 256, 0
109546684, 169, 4
109566436, 9, 4
109584104, 4, 4
109601800, 0, 9
109619476, 225, 4
109639216, 361, 25
109660028, 81, 16
109679792, 625, 0
109699552, 1444, 121
109722436, 9, 49
109741156, 529, 1
109760920, 2025, 144
109783800, 169, 100
109805632, 64, 16
109825384, 0, 4
109843068, 529, 1
109862828, 0, 81
109881536, 676, 9
109901304, 1225, 81
109923160, 0, 25
109941876, 784, 144
109963708, 49, 4
109982428, 225, 9
110002204, 900, 0
110021960, 441, 25
110042748, 289, 9
110062504, 1600, 64
110084364, 324, 49
110105164, 9, 9
110122832, 841, 36
110143628, 4356, 400
110166496, 4900, 196
110189384, 4761, 225
110212280, 1936, 441
110235168, 576, 25
110255960, 676, 1
110275712, 256, 144
110297556, 64, 36
110317316, 0, 1
110335004, 64, 0
110353724, 4, 4
110371392, 121, 1
110391144, 441, 1
110410912, 1225, 25
110432752, 400, 25
110453548, 1936, 64
110475392, 1521, 100
110498276, 729, 1
110518024, 9604, 196
110540904, 4624, 361
110563792, 3025, 49
110585620, 2209, 100
110608520, 196, 81
110629316, 9, 4
110646996, 9, 0
110664656, 1681, 36
110686520, 2916, 81
110708352, 81, 9
110727068, 3136, 100
110749952, 256, 100
110771784, 1156, 49
110793620, 2500, 81
110815468, 3136, 121
110838348, 2304, 289
110861224, 81, 64
110881004, 16, 1
110899712, 529, 4
110919480, 900, 0
110939224, 225, 9
110958988, 1849, 100
110981860, 784, 121
111003720, 144, 0
111023488, 25, 4
111042192, 400, 9
111061940, 36, 9
111080680, 289, 9
111100444, 1369, 9
111121228, 2704, 100
111144112, 1369, 169
111167012, 169, 0
111186744, 1444, 144
111209636, 1024, 16
111231476, 729, 36
111252264, 64, 49
111272036, 625, 4
111291800, 1225, 16
111313628, 441, 100
111335484, 529, 4
111355244, 4, 0
111372912, 324, 4
111392684, 25, 4
111411400, 36, 0
111430120, 361, 1
111449876, 361, 0
111469648, 49, 1
111488368, 49, 1
111507064, 841, 36
111527872, 256, 36
111548676, 225, 0
111568424, 400, 49
111589232, 484, 49
111610028, 225, 0
111629796, 16, 4
111648508, 289, 0
111668284, 36, 25
111688048, 400, 1
111707796, 100, 25
111728580, 400, 25
111749392, 729, 81
111770204, 64, 0
111788920, 25, 16
111808672, 676, 25
111829476, 441, 36
111850276, 169, 0
111870044, 81, 36
111889804, 49, 36
111909552, 144, 1
111929308, 25, 9
111948036, 900, 1
111967788, 1681, 144
111990672, 2916, 100
112013556, 1296, 64
112035396, 36, 9
112054116, 25, 0
112072840, 4, 0
112090528, 4, 4
112108188, 2601, 25
112130012, 9025, 361
112152920, 2704, 529
112175800, 289, 9
112195552, 0, 1
112213236, 100, 4
112232996, 225, 16
112253796, 100, 9
112273560, 169, 0
112293316, 1, 49
112312036, 529, 4
112331788, 784, 81
112352584, 3249, 49
112374428, 5625, 256
112397320, 900, 289
112419164, 0, 0
112436824, 25, 0
112455552, 225, 4
112475320, 121, 36
112496112, 25, 4
112514844, 4, 49
112533556, 100, 25
112554360, 49, 0
112573068, 4, 4
112590748, 25, 25
112610520, 576, 289
112632348, 1521, 676
112655228, 625, 324
112677080, 36, 256
112697896, 144, 289
112719712, 4, 121
112739484, 1, 25
112758192, 16, 9
112776912, 100, 4
112796660, 196, 16
112817484, 16, 4
112836188, 36, 1
112854916, 121, 4
112874684, 4, 36
112893404, 100, 4
112913156, 81, 225
112933960, 9, 256
112953716, 1, 196
112973472, 4, 100
112993232, 4, 4
113010916, 4, 144
113030684, 0, 784
113050424, 4, 64
113069164, 1, 9
113086844, 9, 0
113104520, 16, 0
113123236, 36, 49
113143008, 1, 289
113162760, 25, 400
113183544, 196, 144
113205392, 36, 121
113226196, 1, 400
113245964, 4, 16
113264676, 9, 484
113284436, 100, 196
113306268, 64, 1
113324992, 4, 0
113342696, 121, 81
113363480, 144, 441
113385312, 36, 16
113405084, 9, 361
113424824, 256, 784
113446676, 169, 529
113468512, 16, 196
113489316, 0, 25
113508048, 1, 9
113525712, 1, 81
113544440, 1, 144
113564212, 1, 36
113582920, 36, 196
113603720, 49, 16
113623472, 0, 36
113642200, 25, 49
113661940, 225, 361
113683800, 196, 441
113705624, 144, 625
113727464, 169, 576
113749312, 361, 484
113771156, 196, 196
113792992, 0, 4
113810680, 16, 4
113829396, 0, 324
113849148, 36, 169
113869956, 64, 36
113889704, 4, 196
113909464, 0, 169
113929236, 0, 225
113949004, 121, 81
113969788, 49, 400
113990592, 0, 1
114008284, 9, 289
114028028, 0, 1
114045700, 49, 1156
114067564, 196, 1600
114090424, 100, 576
114112264, 1, 100
114132040, 16, 25
114151796, 9, 256
114171556, 100, 841
114193392, 100, 169
114215248, 81, 529
114236024, 169, 484
114257864, 196, 0
114277640, 1, 400
114297384, 25, 1849
114319228, 100, 784
114341076, 196, 144
114362928, 4, 4
114380596, 16, 36
114400364, 1, 0
114418040, 81, 4
114436760, 1, 36
114455476, 81, 16
114475240, 0, 0
114492908, 9, 36
114511644, 4, 1
114529328, 0, 36
114548032, 16, 49
114567800, 1, 225
114587556, 4, 4
114605236, 25, 196
114626028, 36, 4
114644752, 25, 64
114664512, 169, 529
114686360, 25, 400
114707156, 9, 9
114724836, 25, 1
114743576, 9, 196
114763320, 9, 64
114782040, 9, 49
114800760, 0, 49
114819480, 25, 16
114839228, 9, 49
114857944, 0, 196
114877724, 1, 121
114897484, 25, 256
114918272, 81, 900
114939084, 100, 441
114960912, 64, 16
114980680, 4, 16
114999396, 0, 4
115017076, 1, 256
115036836, 81, 144
115057628, 36, 81
115077400, 9, 169
115097152, 16, 1
115115876, 4, 0
115133552, 0, 25
115152272, 25, 36
115172040, 16, 25
115191784, 16, 16
115211552, 9, 256
115231308, 1, 900
115251076, 16, 81
115270836, 9, 9
115288516, 121, 25
115309304, 25, 400
115330124, 25, 625
115350912, 49, 121
115371712, 0, 9
115389388, 9, 4
115407096, 1, 9
115424756, 9, 121
115444512, 25, 144
115465316, 225, 16
115486124, 121, 144
115507956, 0, 100
115527732, 4, 1
115545400, 9, 4
115563064, 0, 16
115581792, 0, 49
115600520, 4, 64
115619240, 25, 4
115637948, 16, 81
115657716, 1, 36
115676436, 0, 49
115695152, 9, 100
115714916, 25, 169
115735724, 4, 0
115753396, 0, 289
115773156, 9, 49
115791880, 9, 9
115809568, 36, 0
115828280, 25, 4
115846992, 1, 16
115865716, 1, 1
115883396, 0, 81
115902116, 9, 676
115921872, 25, 400
115942672, 25, 16
115962432, 1, 100
115982196, 1, 169
116001952, 169, 441
116023796, 400, 256
116045636, 324, 169
116067476, 289, 36
116088264, 441, 441
116110112, 225, 1024
116132988, 484, 6084
116155864, 900, 11236
116179788, 225, 1849
116202684, 16, 100
116223476, 121, 0
116243236, 0, 81
116261956, 0, 25
116280684, 36, 36
116300428, 16, 144
116321232, 100, 676
116343080, 121, 676
116364912, 169, 64
116385700, 36, 100
116406520, 36, 144
116427320, 81, 1
116446044, 0, 25
116464764, 1, 1
116482440, 25, 100
116503240, 4, 4
116520912, 9, 36
116539636, 9, 25
116558352, 1, 0
116576036, 0, 36
116594776, 1, 9
116612440, 1, 121
116632192, 16, 36
116651944, 36, 16
116671728, 1, 4
116689396, 9, 1
116707084, 0, 16
116725796, 0, 64
116744532, 1, 400
116764272, 49, 400
116785072, 100, 256
116806920, 64, 100
116827708, 64, 81
116847464, 81, 625
116868272, 100, 900
116890112, 121, 81
116910920, 64, 16
116930676, 4, 144
116950444, 25, 144
116971236, 49, 9
116989960, 4, 49
117008688, 1, 4
117026352, 16, 289
117047148, 16, 81
117066916, 16, 16
117086676, 9, 25
117105388, 1, 9
117123060, 4, 25
117141796, 1, 0
117159464, 25, 324
117180276, 36, 144
117201084, 4, 121
117220824, 0, 36
117239556, 9, 1
117257236, 1, 9
117274916, 1, 1
117292600, 9, 25
117311308, 1, 81
117330040, 49, 256
117350836, 169, 576
117372676, 225, 324
117394520, 81, 1
117413244, 0, 4
117430920, 1, 25
117449628, 0, 121
117469404, 25, 256
117490196, 81, 64
117509964, 1, 4
117527648, 0, 1
117545324, 49, 100
117566120, 49, 196
117586908, 0, 4
117604608, 1, 0
117622268, 4, 0
117639952, 1, 49
117658680, 1, 4
117676368, 0, 36
117695072, 9, 16
117713792, 16, 9
117732528, 1, 36
117751244, 36, 100
117772032, 121, 484
117793892, 121, 961
117815716, 169, 900
117837548, 144, 36
117858364, 4, 225
117878124, 1, 169
117897868, 9, 0
117915552, 25, 16
117935312, 4, 25
117954036, 4, 81
117972752, 16, 49
117992516, 121, 361
118014356, 324, 784
118036188, 144, 81
118056996, 25, 9
118075716, 1, 25
118094436, 1, 64
118113156, 36, 529
118133960, 1, 0
118151636, 1, 121
118171396, 9, 1
118189076, 9, 4
118206752, 1, 0
118224424, 0, 25
118243156, 1, 0
118260836, 0, 289
118280608, 25, 484
118301388, 9, 36
118320116, 1, 16
118338844, 0, 36
118357568, 4, 9
118375224, 0, 16
118393956, 4, 0
118411648, 1, 1
118429304, 169, 9
118449072, 100, 100
118470924, 16, 36
118490676, 4, 81
118509392, 1, 4
118527080, 1, 400
118546840, 4, 49
118565560, 0, 196
118585320, 25, 49
118605084, 9, 100
118624836, 9, 100
118644584, 324, 1681
118667472, 324, 3249
118690348, 225, 676
118712180, 121, 256
118734036, 4, 841
118753796, 36, 4
118772516, 1, 100
118792276, 36, 81
118812044, 64, 64
118831796, 64, 1
118850508, 16, 16
118870280, 25, 9
118889000, 9, 16
118907708, 9, 100
118927480, 1, 1
118945152, 4, 225
118964904, 0, 36
118983628, 16, 81
119003400, 64, 484
119024196, 0, 0
119041884, 1, 49
119060612, 0, 64
119079320, 0, 256
119099076, 4, 36
119117800, 49, 1
119136524, 0, 1
119154208, 9, 16
119172924, 81, 121
119193716, 289, 841
119215552, 169, 729
119237388, 144, 100
119259240, 64, 36
119279004, 0, 16
119297716, 1, 196
119317472, 16, 4
119336200, 0, 4
119353884, 0, 169
119373632, 64, 625
119394432, 64, 121
119415240, 49, 9
119433968, 25, 9
119452668, 4, 16
119471404, 1, 49
119490108, 9, 36
119508840, 4, 0
119526524, 9, 16
119545240, 4, 4
119562916, 16, 16
119582672, 25, 64
119602448, 1, 9
119620120, 1, 16
119638840, 4, 121
119658592, 25, 49
119678360, 9, 121
119698100, 324, 2809
119720988, 529, 5184
119743868, 400, 1225
119766752, 196, 4
119786528, 4, 16
119805248, 1, 1
119822920, 0, 361
119842668, 36, 484
119863488, 49, 16
119883236, 1, 25
119901952, 16, 196
119922752, 49, 49
119942520, 1, 1
119960200, 4, 0
119977888, 0, 9
119995564, 9, 196
120015316, 49, 121
120036108, 289, 49
120056920, 81, 144
120077720, 16, 36
120097464, 0, 9
120115140, 0, 36
120133892, 9, 1
120151564, 1, 16
120170276, 9, 16
120188996, 0, 0
120206672, 1, 81
120225396, 1, 324
120245152, 81, 100
120265960, 100, 4
120285732, 1, 9
120303392, 16, 196
120324204, 1, 144
120343972, 4, 49
120362668, 25, 484
120383464, 36, 484
120404276, 25, 676
120425076, 25, 81
120444828, 25, 169
120465644, 4, 49
120484364, 0, 49
120503080, 1, 36
120521800, 16, 4
120540516, 25, 9
120559236, 0, 1
120576920, 1, 9
120594592, 1, 1
120612272, 1, 100
120632036, 9, 64
120650748, 0, 196
120670524, 16, 400
120691316, 25, 16
120711068, 4, 64
120729796, 0, 0
120747464, 25, 225
120768268, 100, 529
120790128, 81, 36
120809876, 16, 25
120829632, 0, 16
120848348, 1, 121
120868128, 4, 1
120885804, 4, 49
120904516, 9, 1
120922208, 9, 81
120940920, 4, 64
120959636, 16, 36
120979392, 49, 225
121000188, 9, 484
121019956, 64, 0
121038680, 9, 1
121056364, 64, 49
121076116, 0, 121
121095868, 9, 36
121114588, 1, 16
121133324, 0, 81
121152040, 9, 361
121171796, 49, 196
121192604, 25, 81
121212364, 16, 81
121232124, 4, 4
121249788, 4, 36
121268520, 9, 0
121286192, 64, 9
121304908, 0, 169
121324676, 16, 16
121344436, 4, 64
121363156, 9, 625
121382916, 36, 36
121402688, 9, 324
121422432, 36, 576
121443224, 49, 144
121464040, 16, 16
121483796, 25, 1
121502512, 9, 1
121520196, 0, 36
121538928, 9, 225
121558668, 25, 49
121578420, 0, 121
121598204, 4, 289
121617968, 25, 49
121637708, 169, 441
121659556, 81, 36
121679304, 9, 0
121696984, 4, 625
121716744, 9, 1156
121737560, 4, 36
121756276, 25, 49
121776032, 1, 36
121794756, 9, 36
121813464, 0, 16
121832188, 25, 64
121851956, 9, 81
121870688, 25, 25
121890436, 16, 1
121909152, 4, 36
121927888, 4, 100
121947628, 16, 196
121968440, 16, 144
121989240, 0, 16
122007964, 0, 121
122027716, 25, 169
122048504, 16, 49
122068280, 0, 1
122085948, 121, 841
122107784, 400, 1296
122130676, 225, 1
122150444, 9, 169
122170184, 16, 529
122190988, 81, 3600
122212824, 576, 1600
122235724, 225, 196
122257560, 25, 225
122278356, 36, 81
122298108, 9, 0
122315796, 16, 324
122336600, 4, 324
122356352, 0, 81
122375072, 1, 36
122393808, 1, 16
122412516, 16, 36
122432260, 144, 256
122454124, 100, 441
122475960, 49, 64
122495712, 16, 121
122516516, 0, 324
122536276, 16, 49
122556044, 1, 25
122574748, 1, 25
122593484, 36, 36
122613232, 49, 144
122634036, 1, 49
122652760, 1, 1
122670448, 0, 16
122689156, 9, 1
122706828, 36, 25
122726604, 100, 729
122748432, 81, 324
122769228, 25, 16
122789000, 9, 1
122806676, 4, 36
122825384, 4, 100
122845140, 25, 9
122863880, 0, 4
122881568, 25, 25
122901316, 0, 49
122920040, 1, 4
122937716, 1, 4
122955392, 0, 4
122973076, 16, 25
122992836, 0, 16
123011552, 1, 0
123029228, 0, 0
123046908, 9, 4
123064604, 16, 36
123084348, 0, 25
123103076, 9, 9
123120756, 4, 4
123138448, 0, 0
123156116, 1, 0
123173788, 0, 4
123191472, 1, 25
123210188, 1, 0
123227884, 4, 1
123245556, 1, 1
123263236, 0, 16
123281952, 4, 25
123300668, 4, 9
123318364, 9, 0
123336036, 4, 1
123353720, 1, 0
123371396, 0, 9
123389084, 1, 25
123407796, 9, 16
123426516, 4, 16
123445220, 25, 9
123463956, 25, 1
123482680, 1, 36
123501400, 1, 16
123520116, 0, 0
123537800, 1, 1
123555468, 0, 1
123573152, 0, 4
123590840, 4, 9
123608516, 9, 1
123626196, 1, 0
123643864, 0, 9
123661560, 0, 9
123679232, 1, 16
123697952, 9, 49
123716684, 9, 16
123735404, 4, 0
123753076, 1, 0
123770756, 0, 4
123788436, 0, 25
123807148, 0, 16
123825868, 0, 4
123843544, 0, 1
123861236, 0, 4
123878916, 0, 16
123897628, 0, 0
123915328, 1, 1
123932996, 1, 0
123950668, 0, 4
123968348, 0, 0
123986044, 0, 9
124003720, 1, 0
124021388, 1, 0
124039068, 0, 0
124056752, 0, 4
124074432, 0, 9
124092108, 0, 0
124109780, 0, 0
124127488, 1, 0
124145156, 0, 1
124162844, 1, 0
124180520, 1, 0
124198196, 0, 9
124215868, 1, 4
124233556, 0, 1
124251232, 0, 9
124268928, 0, 49
124287636, 0, 9
124305316, 1, 1
124322996, 0, 1
124340672, 1, 4
124358356, 0, 1
124376020, 0, 0
124393712, 0, 0
124411396, 0, 1
124429068, 0, 0
124446756, 0, 0
124464428, 0, 1
124482120, 0, 1
124499788, 0, 1
124517476, 0, 1
124535160, 1, 1
124552832, 0, 0
124570516, 0, 4
124588200, 0, 1
124605876, 0, 0
124623548, 0, 4
124641220, 0, 0
124658916, 1, 9
124676596, 0, 4
124694276, 1, 0
124711952, 0, 4
124729636, 0, 0
124747320, 1, 1
124765000, 1, 4
124782684, 0, 1
124800356, 0, 0
124818036, 1, 0
124835720, 1, 16
124854440, 0, 4
124872108, 0, 1
124889792, 0, 16
124908504, 1, 25
124927244, 1, 1
124944928, 1, 0
124962588, 0, 0
124980280, 0, 4
124997952, 0, 4
125015636, 1, 4
125033308, 0, 1
125050996, 0, 0
125068676, 0, 1
125086356, 0, 0
125104028, 0, 0
125121720, 1, 1
125139396, 1, 1
125157076, 0, 9
125174748, 0, 0
125192444, 1, 0
125210120, 0, 1
125227784, 0, 0
125245476, 0, 0
125263156, 0, 0
125280832, 0, 1
125298516, 1, 25
125317248, 0, 16
125335952, 1, 0
125353636, 1, 0
125371316, 1, 1
125388996, 0, 4
125406672, 0, 1
125424360, 0, 1
125442024, 0, 0
125459728, 1, 0
125477404, 0, 0
125495068, 0, 9
125512752, 0, 9
125530444, 0, 1
125548116, 0, 0
125565792, 0, 9
125583476, 0, 36
125602196, 0, 16
125620916, 0, 0
125638596, 0, 4
125656280, 0, 4
125673956, 0, 4
125691632, 0, 1
125709316, 0, 1
125727004, 0, 0
125744688, 0, 4
125762364, 0, 9
125780040, 0, 0
125797720, 1, 1
125815392, 0, 4
125833068, 4, 36
125851796, 9, 100
125871556, 1, 36
125890276, 4, 0
125907948, 0, 0
125925640, 1, 0
125943324, 0, 1
125960984, 1, 4
125978676, 0, 1
125996352, 0, 0
126014028, 0, 4
126031708, 1, 16
126050436, 9, 25
126069156, 4, 9
126086832, 1, 4
126104508, 0, 49
126123244, 0, 4
126140920, 0, 16
126159628, 0, 9
126177316, 1, 4
126195000, 1, 0
126212668, 0, 0
126230348, 0, 0
126248032, 0, 1
126265716, 0, 4
126283400, 1, 36
126302112, 1, 1
126319796, 4, 16
126338512, 0, 9
126356200, 9, 4
126373872, 0, 1
126391556, 0, 1
126409232, 0, 4
126426904, 0, 1
126444600, 1, 1
126462276, 0, 0
126479952, 1, 0
126497628, 1, 0
126515332, 1, 1
126533000, 1, 1
126550676, 0, 0
126568348, 0, 1
126586048, 1, 0
126603720, 1, 0
126621400, 1, 1
126639068, 0, 4
126656756, 0, 0
126674428, 0, 0
126692116, 0, 1
126709792, 0, 0
126727480, 1, 1
126745160, 1, 4
126762840, 0, 1
126780516, 0, 0
126798200, 0, 1
126815868, 0, 0
126833556, 0, 0
126851232, 0, 0
126868908, 0, 0
126886596, 0, 4
126904268, 0, 0
126921964, 0, 4
126939628, 0, 16
126958360, 0, 16
126977072, 0, 0
126994756, 0, 4
127012440, 1, 1
127030108, 0, 9
127047796, 0, 4
127065472, 1, 4
127083144, 0, 16
127101872, 0, 1
127119552, 0, 4
127137228, 0, 25
127155960, 0, 4
127173620, 0, 0
127191316, 1, 1
127209004, 1, 1
127226668, 1, 9
127244356, 1, 9
127262036, 0, 0
127279708, 0, 0
127297396, 0, 16
127316124, 1, 1
127333812, 1, 9
127351468, 0, 1
127369144, 1, 1
127386832, 0, 0
127404516, 0, 0
127422200, 0, 0
127439868, 0, 0
127457560, 0, 9
127475240, 0, 36
127493952, 0, 1
127511632, 0, 0
127529320, 0, 0
127546996, 0, 1
127564676, 0, 25
127583396, 0, 4
127601064, 0, 0
127618744, 0, 0
127636428, 0, 0
127654128, 0, 4
127671792, 0, 0
127689472, 0, 1
127707160, 0, 1
127724840, 1, 0
127742516, 1, 0
127760200, 0, 1
127777876, 0, 0
127795556, 0, 9
127813236, 0, 4
127830916, 1, 0
127848596, 1, 16
127867316, 0, 4
127884984, 0, 4
127902668, 0, 1
127920352, 0, 0
127938024, 0, 0
127955716, 0, 0
127973400, 0, 9
127991072, 0, 0
128008756, 1, 4
128026436, 1, 1
128044112, 0, 0
128061796, 0, 0
128079480, 0, 1
128097152, 4, 9
128114852, 4, 4
128132520, 4, 16
128151228, 0, 9
128168908, 0, 4
128186592, 0, 0
128204276, 0, 9
128221960, 0, 144
128241716, 9, 121
128261484, 16, 4
128280196, 4, 0
128297872, 1, 64
128316604, 25, 169
128337396, 25, 100
128358188, 4, 9
128375880, 0, 1
128393556, 0, 0
128411224, 0, 4
128428908, 4, 36
128447640, 1, 25
128466352, 0, 4
128484028, 0, 0
128501712, 0, 0
128519392, 0, 0
128537072, 0, 1
128554752, 0, 9
128572436, 0, 49
128591164, 0, 1
128608828, 0, 49
128627544, 1, 36
128646276, 1, 1
128663964, 0, 0
128681632, 1, 0
128699312, 1, 0
128716996, 1, 0
128734668, 0, 0
128752348, 0, 1
128770032, 4, 1
128787716, 1, 0
128805392, 0, 4
128823068, 1, 0
128840756, 0, 4
128858448, 1, 1
128876108, 4, 1
128893788, 4, 0
128911476, 25, 4
128930196, 4, 0
128947880, 1, 9
128965548, 25, 64
128985312, 16, 36
129005072, 9, 9
129022744, 0, 1
129040436, 0, 1
129058128, 1, 1
129075788, 1, 4
129093480, 1, 1
129111156, 0, 0
129128844, 4, 1
129146520, 4, 1
129164188, 0, 0
129181884, 1, 9
129199552, 0, 0
129217228, 0, 0
129234904, 0, 0
129252608, 1, 4
129270280, 1, 0
129287956, 0, 9
129305636, 0, 9
129323316, 0, 0
129340992, 0, 25
129359712, 9, 100
129379488, 9, 25
129398196, 4, 0
129415880, 0, 1
129433540, 0, 9
129451248, 1, 9
129468920, 1, 4
129486600, 1, 0
129504280, 0, 0
129521952, 0, 0
129539632, 4, 1
129557304, 0, 16
129576036, 1, 1
129593716, 1, 1
129611396, 1, 25
129630112, 0, 1
129647812, 1, 16
129666520, 0, 1
129684184, 0, 49
129702908, 1, 144
129722676, 25, 16
129742432, 25, 1
129761152, 0, 0
129778832, 0, 4
129796516, 0, 1
129814200, 1, 1
129831868, 0, 0
129849564, 9, 0
129867240, 1, 1
129884920, 1, 4
129902588, 1, 0
129920280, 0, 4
129937956, 0, 0
129955640, 0, 1
129973312, 0, 0
129991000, 0, 4
130008664, 0, 9
130026348, 1, 0
130044040, 9, 9
130061724, 1, 9
130079388, 0, 4
130097060, 0, 4
130114764, 0, 49
130133476, 0, 4
130151148, 0, 0
130168824, 0, 9
130186512, 1, 0
130204192, 0, 0
130221876, 1, 4
130239556, 4, 16
130258276, 9, 9
130275952, 9, 9
130293628, 4, 4
130311320, 0, 0
130329008, 1, 1
130346680, 4, 9
130364348, 1, 0
130382032, 0, 4
130399708, 0, 1
130417388, 0, 0
130435064, 4, 0
130452752, 0, 1
130470436, 0, 0
130488120, 9, 9
130505808, 1, 4
130523476, 0, 1
130541148, 0, 0
130558832, 0, 1
130576520, 1, 0
130594192, 1, 0
130611864, 1, 0
130629544, 0, 0
130647240, 0, 0
130664916, 1, 0
130682596, 4, 4
130700272, 1, 4
130717956, 0, 1
130735644, 0, 0
130753320, 0, 4
130771004, 1, 0
130788680, 0, 1
130806348, 0, 0
130824040, 1, 16
130842756, 1, 25
130861484, 1, 1
130879156, 1, 0
130896828, 0, 0
130914516, 0, 0
130932200, 0, 9
130949880, 4, 36
130968596, 9, 9
130986276, 9, 9
131003960, 4, 0
131021640, 1, 1
131039316, 0, 1
131057004, 1, 49
131075712, 9, 64
131094428, 9, 25
131113160, 1, 0
131130836, 0, 0
131148512, 0, 4
131166192, 1, 0
131183872, 0, 0
131201556, 0, 1
131219228, 0, 4
131236924, 1, 16
131255640, 1, 0
131273304, 0, 0
131290988, 0, 0
131308676, 1, 0
131326360, 9, 1
131344028, 4, 4
131361712, 1, 4
131379392, 0, 0
131397064, 0, 0
131414752, 4, 9
131432424, 0, 1
131450116, 0, 0
131467796, 0, 0
131485468, 0, 4
131503156, 1, 0
131520832, 1, 1
131538512, 1, 0
131556196, 0, 0
131573884, 0, 0
131591564, 0, 0
131609240, 0, 1
131626912, 0, 4
131644596, 0, 0
131662280, 1, 0
131679960, 0, 0
131697624, 0, 1
131715324, 0, 1
131732996, 0, 4
131750672, 0, 1
131768364, 1, 0
131786040, 1, 9
131803708, 0, 0
131821396, 1, 4
131839076, 0, 1
131856748, 0, 0
131874420, 0, 0
131892100, 0, 0
131909796, 0, 9
131927484, 4, 1
131945160, 9, 1
131962820, 0, 0
131980512, 1, 0
131998184, 1, 36
132016916, 9, 144
132036680, 9, 9
132054364, 4, 4
132072028, 0, 4
132089720, 0, 1
132107400, 4, 1
132125080, 0, 49
132143792, 0, 36
132162500, 1, 0
132180200, 4, 1
132197868, 16, 1
132216584, 25, 16
132236364, 1, 16
132255084, 16, 0
132273784, 49, 9
132292508, 9, 4
132310204, 4, 1
132327880, 4, 0
132345544, 0, 0
132363232, 4, 4
132380916, 64, 0
132399636, 324, 4
