Timestamp (micros),Sensor1 (mV),Sensor2 (mV),Label
53856,10404,2500,6
56124,729,400,6
58268,121,9,6
60668,576,676,6
78340,25,100,6
94976,9,4,6
108496,144,64,6
126188,1600,100,6
145952,900,25,6
163608,1444,81,6
182340,841,289,6
201056,16,81,6
217704,324,49,6
235388,49,100,6
253060,64,25,6
269708,49,4,6
285292,196,289,6
304016,196,121,6
322748,49,1,6
338332,225,100,6
357052,0,64,6
372652,225,100,6
391384,4,361,6
408028,196,1,6
424652,529,256,6
443380,100,81,6
461064,1,36,6
476652,16,49,6
493300,100,324,6
512020,9,64,6
527620,144,121,6
546348,49,81,6
562976,144,4,6
579624,100,4,6
596260,81,9,6
611868,576,64,6
629532,625,256,6
648264,529,1,6
664904,484,64,6
682576,961,1,6
699212,900,0,6
715868,49,9,6
731472,529,9,6
748100,9,196,6
764716,64,324,6
782412,2116,400,6
802172,4225,361,6
821916,1089,64,6
840656,576,9,6
857300,784,400,6
876020,81,196,6
893696,441,4,6
910324,441,1,6
926988,64,196,6
944656,576,361,6
963376,625,64,6
981064,16,121,6
998740,81,1,6
1014332,1444,4,6
1033044,1849,225,6
1053864,121,9,6
1071524,1764,225,6
1092320,324,64,6
1111060,4489,9,6
1129772,10000,256,6
1151616,2209,484,6
1172392,625,144,6
1192176,1296,121,6
1212960,784,49,6
1231680,196,0,6
1249372,100,0,6
1267060,256,100,6
1286824,225,16,6
1305540,16,0,6
1322180,256,100,6
1341940,36,16,6
1359620,225,9,6
1377304,16,36,6
1394984,784,64,6
1413696,841,361,6
1433456,64,9,6
1450108,4,25,6
1466748,16,144,6
1485460,1,36,6
1502088,324,36,6
1520816,196,0,6
1538488,841,4,6
1556172,1296,0,6
1574900,64,16,6
1592584,36,64,6
1610256,2304,169,6
1631060,3600,196,6
1651868,900,49,6
1670580,4,0,6
1686184,784,81,6
1704900,2116,16,6
1724656,9801,484,6
1745452,1369,400,6
1766260,784,4,6
1783944,1089,225,6
1804732,121,169,6
1824496,49,16,6
1842168,1444,9,6
1860900,144,49,6
1879604,4225,36,6
1899384,7569,361,6
1920176,2116,256,6
1940976,225,36,6
1959692,625,1,6
1977380,1089,121,6
1998176,49,25,6
2015852,1024,4,6
2034580,2025,36,6
2054336,361,49,6
2073052,196,1,6
2090736,4,36,6
2107372,4,64,6
2124016,4,100,6
2141692,484,169,6
2161460,0,25,6
2178100,64,16,6
2195768,441,81,6
2214492,1369,1,6
2233220,25,16,6
2250912,9,49,6
2267552,169,4,6
2285224,441,4,6
2302900,1,36,6
2319532,121,100,6
2339292,576,49,6
2358012,64,16,6
2375704,1764,49,6
2395472,121,64,6
2414180,196,0,6
2431860,0,16,6
2448504,144,81,6
2467208,6400,361,6
2488008,11881,784,6
2509860,1849,121,6
2530660,196,0,6
2548328,484,64,6
2567060,36,1,6
2583704,289,400,6
2603468,625,36,6
2622180,784,25,6
2640888,1681,441,6
2661704,784,81,6
2680416,529,9,6
2698104,900,81,6
2716816,196,49,6
2735532,4,0,6
2751136,81,256,6
2769856,625,784,6
2789636,961,64,6
2808360,100,9,6
2826020,4,49,6
2842676,196,144,6
2862420,289,49,6
2881136,4624,25,6
2900880,4489,100,6
2921700,3481,169,6
2942500,784,81,6
2961224,121,1,6
2978900,1764,4,6
2997616,2704,144,6
3018412,1521,121,6
3039212,784,1,6
3056908,196,0,6
3074592,16,4,6
3091208,81,196,6
3109940,4,81,6
3126588,289,25,6
3145300,441,9,6
3162976,9,49,6
3179632,100,36,6
3198340,64,324,6
3217064,25,36,6
3234728,81,9,6
3251372,729,81,6
3270104,16,64,6
3287776,196,144,6
3307536,169,81,6
3326252,361,16,6
3344976,36,36,6
3362660,144,4,6
3380340,324,64,6
3399072,16,25,6
3416728,256,81,6
3435452,576,100,6
3455220,0,36,6
3471856,625,9,6
3489540,49,1,6
3506172,144,225,6
3525940,9,9,6
3541548,196,16,6
3560264,169,121,6
3580024,25,64,6
3597716,121,0,6
3615376,0,9,6
3630968,81,25,6
3648676,1,0,6
3664276,36,36,6
3681948,49,16,6
3699616,4,25,6
3716268,1,169,6
3733944,4,25,6
3750576,441,1,6
3768232,900,196,6
3788016,289,256,6
3807792,121,16,6
3826496,225,196,6
3846264,25,64,6
3863952,9,4,6
3879548,4,121,6
3897212,25,49,6
3914900,196,81,6
3933612,169,121,6
3953384,4,25,6
3970008,169,36,6
3988744,529,1,6
4006440,49,36,6
4024096,169,0,6
4041784,400,9,6
4059472,9,1,6
4075056,324,49,6
4093772,169,49,6
4112504,225,36,6
4131220,324,49,6
4149940,121,64,6
4168648,324,0,6
4186352,729,25,6
4205056,361,256,6
4224828,0,16,6
4241464,169,64,6
4260184,225,64,6
4278904,1,9,6
4294500,36,81,6
4312184,1,25,6
4328832,0,49,6
4345460,0,0,6
4361060,1,9,6
4376668,100,225,6
4396432,1,196,6
4414100,225,16,6
4432816,36,81,6
4450500,169,64,6
4469212,256,0,6
4486892,81,16,6
4504580,49,100,6
4523304,36,0,6
4539940,256,0,6
4557620,4,25,6
4574260,25,64,6
4591948,144,9,6
4609628,900,121,6
4629388,100,64,6
4648104,169,49,6
4666816,100,0,6
4684500,0,36,6
4701132,9,49,6
4717776,81,16,6
4735456,16,81,6
4753136,36,196,6
4771868,225,4,6
4789544,9,9,6
4805148,1,144,6
4822820,100,225,6
4842576,121,64,6
4861304,16,16,6
4878972,16,0,6
4895624,100,196,6
4915388,49,225,6
4934104,0,0,6
4949700,4,36,6
4966332,4,1,6
4981944,0,49,6
4998580,16,1,6
5015220,0,100,6
5032888,0,196,6
5050584,49,49,6
5068260,9,36,6
5084888,4,49,6
5101532,4,225,6
5119228,36,49,6
5136896,16,49,6
5154580,9,9,6
5170172,1,225,6
5187864,36,25,6
5205548,16,81,6
5223216,1,25,6
5239864,9,25,6
5256508,16,25,6
5274176,49,1,6
5290808,400,121,6
5310584,25,9,6
5327228,64,1,6
5343856,225,225,6
5363612,144,100,6
5383380,0,9,6
5398976,16,36,6
5416664,81,9,6
5433292,1,64,6
5449940,225,289,6
5469692,361,49,6
5488412,484,49,6
5507152,144,36,6
5525872,4,9,6
5541452,0,4,6
5557060,81,9,6
5573712,225,196,6
5593468,4,121,6
5611144,49,25,6
5628828,64,9,6
5645464,64,16,6
5663132,16,100,6
5681856,441,361,6
5701612,169,36,6
5720344,64,64,6
5738028,144,16,6
5756740,1,0,6
5772344,169,64,6
5791064,121,49,6
5809776,16,121,6
5828504,1,121,6
5846184,49,9,6
5862812,361,121,6
5882572,121,121,6
5902332,4,1,6
5917940,1,25,6
5934580,4,9,6
5950184,25,1,6
5966824,16,4,6
5983468,81,100,6
6002180,0,49,6
6018828,36,36,6
6036496,0,25,6
6053152,0,16,6
6069784,0,0,6
6085384,0,9,6
6100960,36,169,6
6119708,49,256,6
6138420,0,1,6
6154020,0,1,6
6169620,0,64,6
6186268,4,81,6
6202900,16,16,6
6220584,4,4,6
6236184,49,144,6
6254908,9,4,6
6270508,25,81,6
6288188,16,225,6
6306912,9,25,6
6323548,1,1,6
6339140,4,49,6
6355780,1,100,6
6373460,25,1,6
6390100,0,81,6
6406736,9,196,6
6424412,25,16,6
6442100,49,4,6
6458744,16,1,6
6475376,0,25,6
6492020,25,16,6
6509704,0,1,6
6525304,9,49,6
6541944,9,1,6
6557532,1,4,6
6573152,4,1,6
6588744,121,81,6
6607460,36,100,6
6626176,16,9,6
6642824,16,0,6
6659460,16,144,6
6678176,25,169,6
6696892,4,4,6
6712504,64,4,6
6729144,36,100,6
6747868,0,81,6
6764492,1,9,6
6780104,9,36,6
6796736,9,196,6
6814420,16,64,6
6832092,25,0,6
6848744,16,169,6
6867452,64,169,6
6886188,4,1,6
6901796,9,9,6
6917380,16,81,6
6935068,9,81,6
6951700,4,1,6
6967308,0,100,6
6984992,9,196,6
7002676,1,36,6
7019288,49,144,6
7038020,25,64,6
7055712,1,36,6
7072352,4,49,6
7088992,1,196,6
7106672,9,121,6
7124340,4,9,6
7139944,4,4,6
7155540,9,1,6
7171148,9,9,6
7186752,4,36,6
7203380,1,100,6
7221064,49,4,6
7237700,16,100,6
7256428,16,100,6
7275140,4,4,6
7290736,9,36,6
7307388,25,289,6
7326112,9,256,6
7343776,36,1,6
7360416,81,16,6
7378108,16,121,6
7396816,1,64,6
7413472,0,49,6
7430092,1,25,6
7446740,144,144,6
7466496,324,169,6
7486260,100,0,6
7503940,4,16,6
7520584,81,1,6
7537220,4,100,6
7554900,4,324,6
7572588,25,16,6
7590272,4,0,6
7605856,256,36,6
7624580,100,81,6
7643308,49,4,6
7659944,25,0,6
7676580,4,144,6
7694252,4,169,6
7711948,64,16,6
7729620,16,0,6
7746268,4,144,6
7763940,0,225,6
7781624,25,4,6
7798252,9,4,6
7813852,0,4,6
7829448,4,0,6
7845072,25,144,6
7863784,1,225,6
7881468,36,1,6
7898096,4,1,6
7913704,9,0,6
7929300,16,0,6
7945944,9,144,6
7963624,9,169,6
7981308,0,4,6
7996900,1,36,6
8013540,49,0,6
8030172,121,49,6
8048908,36,1,6
8065532,25,100,6
8084256,36,144,6
8102988,9,1,6
8118584,25,1,6
8135208,4,196,6
8152896,16,289,6
8171628,1,4,6
8187224,100,25,6
8205936,81,144,6
8224672,36,1,6
8241304,4,196,6
8258992,1,9,6
8274568,1,9,6
8290176,1,49,6
8306832,81,0,6
8323460,36,25,6
8341132,25,196,6
8359844,0,100,6
8377544,81,0,6
8394176,196,196,6
8413936,256,121,6
8433704,256,4,6
8451380,121,121,6
8471132,49,49,6
8488812,400,0,6
8506496,121,0,6
8524180,25,81,6
8541852,121,225,6
8561600,16,25,6
8579300,441,1,6
8596984,400,25,6
8615696,64,0,6
8632344,0,36,6
8648984,9,144,6
8666668,16,4,6
8683304,9,144,6
8700984,16,324,6
8719716,0,1,6
8735300,100,1,6
8752980,196,64,6
8771708,49,81,6
8789388,36,36,6
8807048,0,64,6
8823692,1,100,6
8841384,49,36,6
8859064,0,16,6
8875700,1,4,6
8891284,49,81,6
8908976,25,121,6
8927692,4,16,6
8944340,0,25,6
8960980,100,49,6
8979712,9,196,6
8997380,81,0,6
9014008,16,0,6
9030644,9,4,6
9046268,4,64,6
9062904,1,36,6
9079540,36,121,6
9098260,36,0,6
9114904,16,49,6
9132576,289,225,6
9152328,576,100,6
9172100,64,4,6
9188736,64,36,6
9206412,16,9,6
9223048,324,121,6
9242820,784,169,6
9262580,121,1,6
9280256,1024,16,6
9300024,256,0,6
9317700,36,64,6
9335388,4,25,6
9352012,4,144,6
9369708,25,25,6
9387388,121,49,6
9406096,196,0,6
9423772,169,9,6
9441460,196,169,6
9461212,81,81,6
9478908,121,9,6
9496568,169,9,6
9514252,196,9,6
9531948,676,64,6
9550652,1444,25,6
9570416,676,0,6
9588108,1,36,6
9604744,400,1,6
9622424,441,0,6
9640088,361,16,6
9658800,2601,1,6
9677524,9604,625,6
9698336,13924,1296,6
9721224,841,576,6
9740976,1225,9,6
9759676,3969,196,6
9780504,3025,169,6
9801300,121,81,6
9820020,4,16,6
9836656,324,144,6
9856424,2116,121,6
9877212,576,49,6
9895940,121,1,6
9913628,25,16,6
9931308,9,1,6
9946900,1,1,6
9962492,0,1,6
9978104,9,49,6
9994736,36,144,6
10013452,1089,121,6
10035300,4096,169,6
10057140,729,289,3
10077936,256,25,3
10097708,49,1,3
10115384,900,100,3
10136180,4,25,3
10153852,81,4,3
10171540,169,9,3
10190252,676,49,3
10210000,1521,9,3
10229764,1156,100,3
10251628,9,196,3
10270332,9,16,3
10288020,4,16,3
10305704,441,256,3
10326484,400,256,3
10347284,3844,64,3
10368100,1521,441,3
10389948,4,100,3
10408664,289,324,3
10429456,169,16,3
10449216,81,100,3
10468972,144,36,3
10488736,576,0,3
10507464,1600,9,3
10527220,1521,64,3
10548012,784,81,3
10567792,529,49,3
10587556,1,100,3
10606264,36,1,3
10623932,0,0,3
10640588,0,25,3
10658260,324,81,3
10678024,169,64,3
10697792,25,0,3
10715476,9,4,3
10732104,100,49,3
10751848,81,16,3
10770588,1,1,3
10787216,1225,16,3
10808008,3025,0,3
10827768,1024,16,3
10848588,529,0,3
10867296,169,4,3
10886020,0,1,3
10902664,169,1,3
10921384,0,36,3
10939056,169,4,3
10957792,9,144,3
10976516,81,1,3
10994176,16,4,3
11011860,1,100,3
11030592,1,36,3
11048272,9,1,3
11064900,225,100,3
11085696,9,169,3
11104416,576,0,3
11123136,256,0,3
11141860,121,0,3
11160584,4,9,3
11177228,361,4,3
11195944,100,49,3
11215692,100,25,3
11235460,625,25,3
11255212,676,25,3
11274968,324,25,3
11294744,25,4,3
11312420,9,36,3
11330108,36,49,3
11348816,64,1,3
11366500,625,49,3
11386260,169,36,3
11406020,4,9,3
11422656,25,4,3
11440348,16,4,3
11458020,25,1,3
11475700,0,9,3
11492344,4,1,3
11508992,36,16,3
11527708,225,9,3
11546424,361,16,3
11566180,144,0,3
11584900,4,1,3
11601540,1,64,3
11619216,25,16,3
11637944,16,0,3
11655620,1,16,3
11673292,36,16,3
11692008,81,81,3
11710744,36,9,3
11728420,36,4,3
11746104,16,0,3
11763784,100,49,3
11783540,100,144,3
11804336,4,16,3
11822012,361,9,3
11840744,625,225,3
11861536,81,361,3
11881304,9,81,3
11898984,49,1,3
11916664,441,0,3
11935380,729,9,3
11954096,49,36,3
11972828,1,121,3
11991540,289,4,3
12010256,576,4,3
12028980,25,81,3
12047704,1,16,3
12065372,361,100,3
12086172,441,361,3
12106976,64,64,3
12125696,49,4,3
12143368,400,289,3
12164168,361,1089,3
12186036,0,9,3
12202656,9,625,3
12221368,100,81,3
12241132,64,81,3
12259856,25,36,3
12278580,25,121,3
12298352,36,36,3
12317064,1,16,3
12334740,25,1,3
12352420,256,225,3
12373224,4,144,3
12391936,441,9,3
12410644,361,196,3
12431452,49,225,3
12451216,16,169,3
12470968,676,400,3
12491756,1764,25,3
12512568,441,576,3
12533372,25,784,3
12553132,16,256,3
12572908,25,1,3
12590572,0,1024,3
12610324,81,1225,3
12631132,625,289,3
12651932,4,784,3
12670640,4,1089,3
12690388,100,324,3
12711208,0,64,3
12728880,64,324,3
12748644,16,144,3
12768400,289,16,3
12788172,16,16,3
12806892,400,121,3
12827704,289,484,3
12848492,64,1,3
12866172,100,529,3
12886964,49,361,3
12906752,1,9,3
12923376,16,16,3
12942096,64,16,3
12960824,9,49,3
12978500,1,0,3
12995140,9,900,3
13013860,225,144,3
13034668,324,25,3
13054416,16,49,3
13073128,36,0,3
13090816,4,121,3
13109532,0,1,3
13126188,9,400,3
13144896,16,9,3
13162580,324,9,3
13181300,441,169,3
13202096,1024,49,3
13222892,2601,196,3
13244756,324,9,3
13263460,0,0,3
13280084,81,529,3
13299856,16,64,3
13318580,1,4,3
13335208,0,576,3
13353932,1,36,3
13371628,36,16,3
13390340,1,4,3
13406984,256,225,3
13427784,144,64,3
13447532,169,64,3
13467280,1521,16,3
13488068,2500,36,3
13508892,1089,400,3
13530732,400,4,3
13549460,144,576,3
13570256,16,196,3
13590020,196,16,3
13609768,361,81,3
13629548,625,4,3
13648260,64,49,3
13666968,25,64,3
13685688,25,121,3
13705464,400,16,3
13725212,900,9,3
13743940,676,225,3
13764744,81,144,3
13784492,36,36,3
13803220,49,16,3
13821940,36,1,3
13839624,484,4,3
13858340,81,256,3
13878100,25,25,3
13896824,4,16,3
13914504,0,225,3
13933216,36,16,3
13951932,144,25,3
13971708,196,16,3
13991476,121,16,3
14011216,49,25,3
14029952,4,1,3
14046572,256,900,3
14067372,64,1296,3
14088168,25,9,3
14105860,9,784,3
14124568,64,324,3
14144324,225,16,3
14164084,36,81,3
14182816,9,361,3
14201532,4,144,3
14220248,16,25,3
14238984,4,4,3
14255616,36,256,3
14275372,289,484,3
14296192,49,1,3
14313864,16,256,3
14333616,36,100,3
14353360,841,169,3
14374168,1024,289,3
14396004,64,196,3
14415772,4,81,3
14433460,144,0,3
14452176,25,324,3
14471936,49,196,3
14491708,4,16,3
14509376,81,25,3
14528100,9,25,3
14545796,100,225,3
14566584,4,289,3
14585300,169,441,3
14606100,225,1024,3
14627948,36,64,3
14646656,400,81,3
14666420,25,1,3
14684092,196,256,3
14704904,361,169,3
14725692,900,256,3
14746488,225,81,3
14766256,4,25,3
14783928,49,361,3
14803688,4,361,3
14822412,484,9,3
14841140,81,144,3
14860904,1,49,3
14878580,169,1,3
14897304,0,16,3
14914976,121,64,3
14934740,36,324,3
14954492,0,81,3
14972176,256,100,3
14992968,441,361,3
15013780,100,1,3
15032500,64,25,3
15051216,9,81,3
15068896,169,0,3
15087612,196,25,3
15107392,9,4,3
15124020,4,256,3
15142720,49,100,3
15162500,49,100,3
15182240,1,16,3
15199932,196,361,3
15220728,196,841,3
15241528,100,144,3
15262320,36,25,3
15281044,144,0,3
15299768,256,16,3
15319532,144,0,3
15338256,4,9,3
15354904,0,0,3
15371536,9,529,3
15390264,169,625,3
15411056,16,0,3
15428740,36,169,3
15448500,225,36,3
15468264,1156,25,3
15489072,441,25,3
15508820,25,36,3
15527536,4,0,3
15544184,49,1,3
15561872,4,441,3
15580568,64,121,3
15600336,0,81,3
15618000,25,144,3
15637776,25,100,3
15657536,36,0,3
15675228,16,4,3
15692908,0,25,3
15710576,16,36,3
15729296,121,121,3
15750088,4,0,3
15766740,169,400,3
15787548,0,100,3
15806260,484,64,3
15826024,225,49,3
15845780,9,64,3
15863464,25,0,3
15881140,256,676,3
15901956,441,1156,3
15923776,100,25,3
15943540,144,36,3
15963296,81,0,3
15980976,121,256,3
16001772,256,841,3
16022584,16,64,3
16041308,9,225,3
16060020,1,4,3
16076660,1,625,3
16095380,4,144,3
16114096,16,0,3
16131780,9,100,3
16150492,4,0,3
16167136,25,64,3
16185856,64,1,3
16203548,121,9,3
16222272,100,0,3
16240992,81,36,3
16259704,100,16,3
16279452,1,25,3
16297152,1,25,3
16314812,64,81,3
16333528,64,25,3
16352248,36,16,3
16370980,144,1,3
16389692,441,4,3
16408416,400,0,3
16427136,121,81,3
16446888,64,1,3
16464576,324,64,3
16484332,100,0,3
16503068,100,25,3
16522816,4,0,3
16539456,81,121,3
16559220,64,289,3
16578984,25,100,3
16598740,16,4,3
16616396,100,49,3
16636176,4,49,3
16653860,144,100,3
16674648,36,196,3
16694420,196,4,3
16713132,169,4,3
16731860,9,1,3
16748484,144,484,3
16769304,25,729,3
16789064,81,4,3
16806736,9,256,3
16825456,196,144,3
16846244,81,16,3
16864968,169,324,3
16885784,225,529,3
16906588,64,64,3
16925292,1,1,3
16941940,81,4,3
16959620,81,4,3
16977308,49,361,3
16997044,0,324,3
17015752,1,16,3
17033452,9,256,3
17052184,36,121,3
17071936,361,0,3
17090668,625,1,3
17109380,324,36,3
17129132,121,36,3
17148892,1024,4,3
17168668,256,1,3
17187372,0,49,3
17205060,289,9,3
17223788,625,784,3
17244572,49,961,3
17264336,4,225,3
17283056,361,25,3
17302820,144,9,3
17321540,64,81,3
17340260,676,0,3
17358980,529,25,3
17378740,64,1,3
17396428,169,225,3
17417224,1,441,3
17435956,36,289,3
17455684,256,64,3
17475448,144,36,3
17495220,25,1,3
17512892,100,121,3
17533692,121,484,3
17554488,0,36,3
17572176,121,256,3
17592976,9,324,3
17611688,169,100,3
17632500,324,25,3
17652268,289,1,3
17670988,144,9,3
17689700,0,9,3
17706348,256,49,3
17726096,196,0,3
17744816,25,64,3
17763544,49,169,3
17783292,49,4,3
17800972,196,144,3
17821788,169,81,3
17841544,4,0,3
17858180,196,25,3
17877936,121,25,3
17897708,1,9,3
17914324,81,729,3
17934092,196,625,3
17954900,49,36,3
17973612,256,225,3
17994408,100,324,3
18015208,4,1,3
18031852,361,144,3
18052660,484,1,3
18071380,169,25,3
18091144,144,1,3
18109868,49,0,3
18127540,0,4,3
18144164,9,144,3
18162908,64,81,3
18181616,25,16,3
18200340,49,25,3
18219060,81,25,3
18237792,16,1,3
18255460,81,0,3
18273144,9,121,3
18291872,256,169,3
18312660,81,0,3
18330332,121,36,3
18350100,64,36,3
18368828,1,4,3
18385460,289,25,3
18405216,441,36,3
18424984,36,25,3
18443700,1,16,3
18461372,196,4,3
18480088,1369,1,3
18499860,1156,36,3
18520672,400,25,3
18540432,9,36,3
18558112,100,36,3
18577860,144,225,3
18598652,16,16,3
18617384,25,0,3
18635068,169,1,3
18653792,144,0,3
18672500,16,49,3
18691236,1,81,3
18708904,49,25,3
18727624,121,64,3
18747360,225,25,3
18767144,1,0,3
18783796,529,81,3
18803532,400,49,3
18823300,9,1,3
18839936,256,49,3
18859696,196,4,3
18878412,121,144,3
18899224,25,225,3
18918984,9,64,3
18936660,9,9,3
18953304,4,25,3
18970992,4,169,3
18989696,4,144,3
19008416,64,25,3
19027148,1,0,3
19043784,49,81,3
19062508,36,100,3
19082276,64,9,3
19099936,100,81,3
19119692,100,121,3
19140496,16,4,3
19158188,169,0,3
19176896,324,1,3
19195620,9,9,3
19212256,4,0,3
19228908,49,25,3
19247616,225,144,3
19268424,36,81,3
19287148,9,100,3
19305864,25,4,3
19323540,1,4,3
19340168,36,49,3
19358908,64,16,3
19377620,100,36,3
19397376,36,25,3
19416108,16,16,3
19434828,4,1,3
19451468,9,25,3
19469140,36,4,3
19486820,64,225,3
19506596,81,16,3
19525300,121,1,3
19544004,64,9,3
19561708,36,36,3
19580404,121,36,3
19600176,0,36,3
19617868,0,4,3
19634492,25,256,3
19654260,9,121,3
19672984,121,0,3
19691712,121,4,3
19710424,1,16,3
19728104,64,16,3
19746808,196,121,3
19767624,100,1,3
19786328,0,49,3
19804016,25,9,3
19821704,16,0,3
19839384,121,25,3
19859144,1,49,3
19876812,25,1,3
19894508,16,196,3
19914256,144,169,3
19935052,121,0,3
19953788,16,9,3
19971464,0,0,3
19988104,16,169,3
20007856,100,144,3
20028668,484,36,3
20048416,900,49,3
20068168,100,16,7
20087948,81,1,7
20105624,100,4,7
20124340,16,0,7
20142024,0,4,7
20158656,0,64,7
20176332,81,0,7
20194020,121,196,7
20214828,0,25,7
20232504,0,4,7
20249152,9,4,7
20265780,64,64,7
20284500,64,529,7
20304256,225,64,7
20324024,400,25,7
20343780,16,0,7
20361452,361,144,7
20382248,169,100,7
20403064,36,1,7
20420748,9,0,7
20437376,676,256,7
20458176,1,324,7
20476880,484,81,7
20496664,36,1,7
20514348,9,64,7
20532008,49,25,7
20550740,225,49,7
20570508,81,25,7
20589216,36,4,7
20606888,324,196,7
20627708,1,576,7
20646428,576,100,7
20667216,256,25,7
20686984,4,49,7
20704664,100,1,7
20723384,729,400,7
20744176,100,324,7
20764996,16,0,7
20782668,9,81,7
20800340,16,0,7
20818020,289,9,7
20836740,64,144,7
20856500,81,36,7
20875216,25,25,7
20893936,25,0,7
20911616,16,81,7
20930336,289,144,7
20951152,841,64,7
20970892,1444,100,7
20992728,361,100,7
21013536,16,121,7
21033308,144,0,7
21052012,169,289,7
21072816,0,169,7
21091548,1,64,7
21109216,64,144,7
21128968,169,144,7
21149780,25,36,7
21168508,900,4,7
21187220,625,49,7
21206960,169,0,7
21225708,1,16,7
21243384,324,49,7
21263140,81,256,7
21282904,289,0,7
21301624,196,9,7
21320336,36,9,7
21338012,0,4,7
21354656,9,625,7
21373376,484,441,7
21394172,1024,64,7
21414988,16,1,7
21432668,4,81,7
21450340,625,100,7
21471132,196,36,7
21490896,1,49,7
21508576,0,25,7
21526272,1,1,7
21542900,36,256,7
21562660,0,289,7
21581376,64,9,7
21599064,0,0,7
21615704,4,4,7
21632332,1,169,7
21651048,25,529,7
21670812,1,1,7
21687472,9,9,7
21704108,9,64,7
21721776,0,16,7
21739448,36,289,7
21759228,9,49,7
21776896,25,25,7
21795612,225,25,7
21815384,196,4,7
21834104,36,1,7
21851780,4,16,7
21869456,4,324,7
21888184,225,64,7
21907940,64,1,7
21925604,6084,100,7
21947452,12321,576,7
21970332,6561,400,7
21992148,36,11881,7
22014008,4489,0,7
22033768,7921,0,7
22053512,4225,16129,7
22077456,676,8649,7
22099292,625,1024,7
22121128,256,12996,7
22144012,1024,441,7
22165856,441,3721,7
22187692,400,1521,7
22209528,49,9,7
22227216,36,961,7
22246976,81,64,7
22265696,0,225,7
22284420,121,900,7
22305212,81,1764,7
22326028,196,961,7
22346816,0,225,7
22365544,4,49,7
22383204,81,2025,7
22404008,49,1681,7
22424808,225,5184,7
22446640,81,20449,7
22468492,1024,3136,7
22491380,361,729,7
22512168,0,841,7
22530900,16,16,7
22549632,64,169,7
22569380,441,361,7
22590164,49,361,7
22609944,4,4,7
22626576,36,361,7
22646336,0,169,7
22665056,4,16,7
22682744,9,64,7
22700428,36,196,7
22720180,4,289,7
22738900,36,36,7
22757624,0,16,7
22775292,25,100,7
22795052,16,196,7
22814824,9,225,7
22833536,0,529,7
22852252,1,2209,7
22872012,64,49,7
22890740,64,4,7
22908416,4,361,7
22927120,9,576,7
22945856,81,324,7
22965628,25,0,7
22983292,64,0,7
23000988,144,16,7
23020752,25,4,7
23038424,16,9,7
23056096,0,361,7
23074824,0,144,7
23093544,64,16,7
23112272,4,1,7
23128896,16,289,7
23148668,1,361,7
23167380,49,4,7
23185056,0,36,7
23202744,1,25,7
23220432,9,196,7
23239128,0,1,7
23255772,0,576,7
23274492,0,25,7
23292188,16,1,7
23309864,4,100,7
23328576,0,4,7
23345212,16,289,7
23364992,1,49,7
23382660,16,4,7
23400340,0,49,7
23418028,1,144,7
23436736,0,361,7
23455456,25,144,7
23475220,1,100,7
23493948,9,0,7
23510572,0,25,7
23528256,16,121,7
23548020,0,169,7
23566736,9,0,7
23583380,0,169,7
23602092,0,25,7
23619788,9,25,7
23637456,0,169,7
23656172,0,361,7
23674896,16,169,7
23694660,16,81,7
23713372,9,0,7
23730016,0,16,7
23747704,16,196,7
23767468,0,256,7
23786180,9,0,7
23802804,0,144,7
23821548,0,36,7
23839220,9,49,7
23856904,1,121,7
23875616,0,324,7
23894336,4,144,7
23913044,4,81,7
23930736,4,0,7
23947384,4,324,7
23966100,0,100,7
23984812,25,196,7
24004576,0,1,7
24021232,16,1,7
24038904,0,4,7
24055544,0,196,7
24074260,0,676,7
24092988,9,9,7
24109612,16,0,7
24127296,4,196,7
24146024,0,36,7
24163696,16,324,7
24183460,0,36,7
24201132,25,1,7
24218828,0,25,7
24236500,16,256,7
24256256,0,324,7
24274980,9,0,7
24291616,0,100,7
24310324,0,25,7
24328012,16,36,7
24346744,0,9,7
24363384,0,196,7
24382100,0,0,7
24398732,9,0,7
24415380,4,529,7
24434100,1,484,7
24452812,49,100,7
24472568,1,64,7
24490264,16,0,7
24507944,1,64,7
24525620,9,100,7
24544344,0,144,7
24563056,9,144,7
24581780,0,16,7
24599460,9,1,7
24616112,0,361,7
24634816,0,49,7
24652496,16,400,7
24672252,0,36,7
24689948,25,1,7
24707620,0,9,7
24724256,9,324,7
24742988,1,576,7
24761696,36,16,7
24780420,4,49,7
24798108,9,9,7
24814748,0,484,7
24833448,0,361,7
24852168,16,121,7
24871928,4,9,7
24888584,9,0,7
24905216,4,256,7
24923940,0,49,7
24941616,16,400,7
24961376,1,49,7
24979060,25,1,7
24996740,0,25,7
25014432,4,256,7
25033136,4,225,7
25051852,16,81,7
25070568,0,0,7
25087228,9,1,7
25103848,0,400,7
25122568,0,256,7
25141296,25,196,7
25161080,4,36,7
25178740,25,0,7
25196416,0,4,7
25213052,9,441,7
25231788,1,625,7
25250500,36,49,7
25269208,1,81,7
25286904,16,25,7
25305620,0,25,7
25323296,4,100,7
25342020,0,196,7
25360748,9,169,7
25379456,0,49,7
25397140,9,0,7
25413788,1,361,7
25432484,0,64,7
25450168,16,441,7
25469928,0,49,7
25487624,25,0,7
25505312,1,9,7
25521932,16,256,7
25541700,0,441,7
25560420,36,49,7
25579136,1,9,7
25595792,4,4,7
25612424,1,625,7
25631136,1,441,7
25649852,16,169,7
25669608,4,36,7
25687304,16,1,7
25704988,0,9,7
25721612,9,361,7
25740340,0,576,7
25759056,36,25,7
25777776,9,49,7
25795460,9,9,7
25812112,4,441,7
25830812,1,324,7
25849528,25,144,7
25869288,4,9,7
25885944,9,0,7
25902576,1,225,7
25921296,1,49,7
25938976,16,324,7
25958748,0,36,7
25976432,25,4,7
25994108,1,16,7
26011792,4,289,7
26030508,4,225,7
26049212,25,81,7
26067924,0,4,7
26084584,1,16,7
26102256,1,196,7
26120976,0,4,7
26137624,4,441,7
26156348,0,81,7
26174028,16,4,7
26191704,4,324,7
26210432,1,100,7
26229144,9,64,7
26246816,0,81,7
26264492,0,64,7
26282180,9,144,7
26300900,1,0,7
26317540,4,400,7
26336264,1,36,7
26353944,25,0,7
26371628,4,169,7
26390348,1,9,7
26406992,4,400,7
26425704,1,81,7
26443376,16,4,7
26461048,0,225,7
26479784,0,25,7
26497456,9,400,7
26516180,0,64,7
26533860,25,0,7
26551548,0,121,7
26570272,4,4,7
26586896,1,441,7
26605624,1,49,7
26623304,9,4,7
26639936,1,361,7
26658660,0,196,7
26677376,25,144,7
26697144,1,16,7
26714824,16,0,7
26732500,1,1,7
26749136,16,361,7
26768892,0,441,7
26787616,25,16,7
26806336,1,49,7
26824024,0,49,7
26841696,16,25,7
26860416,1,25,7
26878108,4,1,7
26894736,0,484,7
26913464,4,64,7
26931132,16,4,7
26948824,9,225,7
26967540,1,196,7
26986252,25,144,7
27006028,4,36,7
27023704,25,0,7
27041372,0,4,7
27058016,4,324,7
27076748,1,576,7
27095456,25,49,7
27114176,1,100,7
27132892,9,4,7
27149560,1,225,7
27168256,0,4,7
27184900,1,484,7
27203624,0,64,7
27221308,9,4,7
27237932,9,400,7
27256648,0,361,7
27275376,36,144,7
27295148,1,49,7
27312816,16,0,7
27330492,1,9,7
27347136,16,400,7
27366900,1,484,7
27385612,25,36,7
27404344,1,1,7
27420984,0,9,7
27437612,0,441,7
27456332,0,256,7
27475060,25,225,7
27494836,9,36,7
27512500,25,0,7
27530172,0,1,7
27546820,4,400,7
27565536,1,576,7
27584252,49,64,7
27602980,1,64,7
27620664,16,4,7
27638328,0,144,7
27657056,0,4,7
27673692,1,441,7
27692424,0,64,7
27710100,9,1,7
27726740,16,484,7
27746500,1,324,7
27765216,25,9,7
27782896,1,81,7
27800572,4,36,7
27818264,9,81,7
27835952,9,36,7
27853620,4,784,7
27872340,4,81,7
27890032,36,0,7
27907700,4,169,7
27926424,1,1,7
27943060,16,400,7
27962816,1,64,7
27980500,25,1,7
27998164,0,36,7
28015856,0,100,7
28034588,0,196,7
28053296,16,169,7
28073068,0,64,7
28090748,16,1,7
28108424,0,36,7
28126100,4,256,7
28144828,4,256,7
28163532,16,81,7
28182252,1,1,7
28198900,1,9,7
28215532,0,441,7
28234268,1,256,7
28252976,25,225,7
28272744,4,36,7
28290420,36,0,7
28308100,0,4,7
28324724,16,441,7
28344504,1,441,7
28363220,49,25,7
28381928,0,16,7
28399608,4,25,7
28417300,9,49,7
28434988,1,121,7
28453696,1,256,7
28472424,1,196,7
28491148,0,49,7
28508820,4,1,7
28525464,1,361,7
28544172,0,81,7
28561860,16,400,7
28581616,0,64,7
28599292,36,1,7
28616984,0,25,7
28634664,9,121,7
28653380,1,144,7
28672096,25,121,7
28691864,0,16,7
28709536,9,0,7
28726172,1,64,7
28743864,0,100,7
28762572,0,324,7
28781292,4,100,7
28800020,4,64,7
28817700,9,0,7
28834332,9,400,7
28853056,0,169,7
28871780,25,144,7
28891548,1,4,7
28908180,9,9,7
28924828,0,144,7
28943552,0,16,7
28961220,9,225,7
28979944,1,0,7
28996576,9,0,7
29013224,1,361,7
29031932,0,289,7
29050656,25,144,7
29070420,4,49,7
29088108,25,0,7
29105780,0,9,7
29122420,9,324,7
29141136,0,529,7
29159852,16,36,7
29178584,1,36,7
29196252,4,4,7
29212896,1,400,7
29231612,0,256,7
29250328,16,196,7
29270116,1,25,7
29287784,36,1,7
29305460,0,9,7
29322096,9,400,7
29340828,1,529,7
29359532,36,64,7
29378252,1,49,7
29395928,16,4,7
29413616,0,121,7
29432356,1,4,7
29448976,4,361,7
29467708,0,64,7
29485388,16,1,7
29503072,9,256,7
29521776,0,49,7
29539472,16,289,7
29559216,1,36,7
29576904,25,1,7
29594572,4,25,7
29612264,16,121,7
29632028,0,225,7
29650728,4,0,7
29667376,0,144,7
29686116,1,64,7
29703780,16,25,7
29722512,0,81,7
29740188,0,16,7
29757868,1,400,7
29776572,0,100,7
29795296,16,4,7
29812992,1,81,7
29830660,1,36,7
29848336,4,625,7
29867060,4,64,7
29884752,25,0,7
29902424,0,169,7
29921144,1,1,7
29937788,4,441,7
29956504,1,64,7
29974176,16,9,7
29991848,4,100,7
30010584,0,4,7
30027216,4,324,7
30045948,4,64,7
30063628,25,4,1
30081316,4,256,1
30100020,0,81,1
30117700,16,361,1
30137464,0,64,1
30155148,16,0,1
30172816,0,16,1
30190488,4,196,1
30209220,0,225,1
30227936,25,81,1
30246656,1,16,1
30264348,9,0,1
30280996,0,289,1
30299700,0,49,1
30317380,9,361,1
30336096,0,36,1
30353784,16,0,1
30371452,0,64,1
30389140,9,25,1
30406824,9,676,1
30425548,4,81,1
30443220,25,1,1
30460896,1,196,1
30479620,0,0,1
30496260,9,441,1
30514972,0,64,1
30532664,25,4,1
30550336,1,144,1
30569052,0,16,1
30586728,9,361,1
30605468,0,49,1
30623144,16,0,1
30640820,0,100,1
30659536,1,4,1
30676176,0,400,1
30694896,4,25,1
30712584,4,0,1
30729200,1,400,1
30747936,0,196,1
30766656,25,100,1
30786416,0,1,1
30803068,9,0,1
30819712,0,225,1
30838420,1,25,1
30856096,4,324,1
30874824,0,16,1
30892496,16,1,1
30910172,0,64,1
30927856,4,36,1
30945544,9,676,1
30964276,4,64,1
30981940,25,1,1
30999624,1,121,1
31018340,0,0,1
31034976,1,400,1
31053704,1,49,1
31071384,25,1,1
31089064,4,121,1
31107776,0,9,1
31124408,4,289,1
31143156,1,49,1
31160832,9,1,1
31177460,1,441,1
31196180,0,361,1
31214900,25,121,1
31234656,1,49,1
31252340,16,0,1
31270020,1,81,1
31287704,25,49,1
31306420,1,121,1
31325132,16,256,1
31344908,0,121,1
31363628,25,9,1
31381300,0,1,1
31397952,4,289,1
31416652,4,81,1
31434340,16,484,1
31454096,1,49,1
31471784,9,16,1
31489452,0,25,1
31507136,4,196,1
31525856,0,169,1
31544576,4,169,1
31563308,0,25,1
31580984,4,4,1
31597636,1,361,1
31616336,0,64,1
31634012,16,361,1
31653776,0,36,1
31671468,16,1,1
31689132,1,16,1
31706816,4,196,1
31725524,0,196,1
31744256,16,100,1
31764020,0,16,1
31781700,4,16,1
31799392,0,1,1
31816024,0,529,1
31834732,4,484,1
31853452,25,196,1
31873220,4,36,1
31890896,9,36,1
31908572,0,64,1
31926248,9,169,1
31944976,0,144,1
31963688,9,100,1
31982416,0,0,1
31999072,4,1,1
32015712,0,484,1
32034420,0,324,1
32053128,36,144,1
32072892,9,16,1
32090576,36,0,1
32108256,0,4,1
32124888,9,289,1
32143616,0,400,1
32162344,16,49,1
32181068,0,36,1
32198756,9,1,1
32215392,0,441,1
32234088,0,289,1
32252808,16,100,1
32272580,9,4,1
32289220,16,1,1
32306900,1,9,1
32323532,4,64,1
32341224,4,625,1
32359936,4,64,1
32377628,9,9,1
32394272,4,484,1
32412988,1,484,1
32431692,36,121,1
32451452,1,49,1
32469144,25,0,1
32486824,0,16,1
32504488,9,144,1
32523212,1,196,1
32541936,16,100,1
32561708,0,16,1
32579380,9,1,1
32596032,1,81,1
32613696,0,81,1
32631380,1,784,1
32650096,4,49,1
32667788,16,1,1
32685460,1,121,1
32704184,4,4,1
32720812,16,289,1
32740584,1,25,1
32758260,9,0,1
32774904,0,256,1
32793632,0,16,1
32811308,9,225,1
32830020,0,1,1
32846664,9,1,1
32863292,1,400,1
32882016,0,256,1
32900736,25,196,1
32920500,4,49,1
32938188,16,0,1
32955860,0,9,1
32972504,4,324,1
32991204,0,576,1
33009936,16,25,1
33028656,0,64,1
33046336,9,4,1
33062980,1,529,1
33081700,0,361,1
33100416,16,144,1
33120176,4,16,1
33137860,16,4,1
33155540,0,9,1
33172180,16,324,1
33191924,0,400,1
33210660,36,25,1
33229372,0,9,1
33246016,4,16,1
33263696,1,144,1
33282432,1,1,1
33299056,1,400,1
33317784,0,36,1
33335468,9,4,1
33352100,4,361,1
33370812,0,361,1
33389524,36,121,1
33409304,1,64,1
33426984,25,0,1
33444656,0,16,1
33462348,1,144,1
33481056,0,144,1
33499776,9,100,1
33518488,0,0,1
33535148,4,9,1
33551788,0,576,1
33570488,0,324,1
33589204,36,196,1
33608972,9,9,1
33625624,16,1,1
33643292,0,64,1
33660988,9,36,1
33678664,4,676,1
33697380,9,100,1
33716104,9,0,1
33732752,1,196,1
33751472,0,1,1
33768088,4,400,1
33786808,1,49,1
33804504,25,4,1
33822176,1,121,1
33840892,1,1,1
33857528,9,441,1
33876264,0,81,1
33893944,9,1,1
33910584,4,484,1
33929300,0,400,1
33948020,36,144,1
33967776,1,49,1
33985452,25,0,1
34003144,0,16,1
34020820,4,144,1
34039540,1,169,1
34058256,25,100,1
34078024,0,9,1
34094660,9,0,1
34111308,1,289,1
34130024,0,64,1
34147708,9,324,1
34166416,0,36,1
34184092,16,0,1
34201776,1,64,1
34219460,4,16,1
34237136,9,576,1
34255860,9,100,1
34274584,16,0,1
34292268,0,16,1
34309944,0,256,1
34328668,1,256,1
34347376,16,121,1
34367136,1,16,1
34384816,4,4,1
34401460,0,100,1
34420188,1,1,1
34436816,4,225,1
34455528,1,4,1
34472188,16,0,1
34489864,4,361,1
34508580,1,144,1
34527300,36,64,1
34546028,1,16,1
34563696,4,25,1
34581376,9,36,1
34599056,9,81,1
34616736,0,529,1
34635460,4,16,1
34653136,16,1,1
34670828,0,64,1
34688504,1,64,1
34706172,4,576,1
34724904,9,49,1
34742588,25,1,1
34760244,0,121,1
34778980,1,0,1
34795624,4,289,1
34814352,1,25,1
34832024,9,0,1
34848664,1,441,1
34867392,1,324,1
34886088,49,100,1
34905860,1,9,1
34922492,16,1,1
34940184,0,25,1
34957868,1,49,1
34975536,1,625,1
34994276,4,49,1
35011944,16,0,1
35029620,1,121,1
35048348,1,4,1
35064976,1,400,1
35083696,1,36,1
35101380,16,1,1
35119048,1,100,1
35137784,0,1,1
35154416,9,324,1
35173148,0,36,1
35190832,9,1,1
35207472,1,484,1
35226180,0,324,1
35244892,36,144,1
35264668,4,25,1
35282344,16,1,1
35300016,0,25,1
35317692,9,144,1
35336416,4,144,1
35355128,25,100,1
35374896,0,9,1
35391548,9,0,1
35408184,0,225,1
35426908,0,36,1
35444580,16,289,1
35464344,1,9,1
35480984,16,0,1
35498664,1,64,1
35516336,4,25,1
35534024,9,625,1
35552748,4,81,1
35570428,25,1,1
35588116,1,144,1
35606832,0,4,1
35623456,1,400,1
35642176,1,36,1
35659864,16,4,1
35677540,1,121,1
35696260,1,16,1
35713936,16,289,1
35733708,0,25,1
35751380,16,0,1
35769060,0,9,1
35785700,4,289,1
35804420,0,400,1
35823140,16,81,1
35841852,4,64,1
35859544,9,9,1
35876180,1,324,1
35894892,0,196,1
35913616,25,144,1
35933388,1,4,1
35950028,16,0,1
35967700,0,25,1
35985384,1,100,1
36004100,0,256,1
36022816,16,100,1
36042572,1,49,1
36060268,9,0,1
36076896,0,121,1
36095620,4,1,1
36112264,4,289,1
36130988,0,36,1
36148652,9,0,1
36165304,4,400,1
36184004,0,289,1
36202736,36,81,1
36221464,1,9,1
36238100,16,1,1
36255784,1,169,1
36274504,0,25,1
36292176,4,441,1
36310908,0,81,1
36328588,25,0,1
36346268,1,121,1
36364980,1,0,1
36381604,4,361,1
36400344,1,49,1
36418020,25,4,1
36435696,1,100,1
36454428,0,4,1
36471056,9,324,1
36489784,0,36,1
36507464,9,1,1
36524112,4,400,1
36542816,0,324,1
36561528,25,121,1
36581288,1,36,1
36598984,16,0,1
36616656,0,9,1
36633300,9,289,1
36652016,0,529,1
36670740,16,16,1
36689460,4,49,1
36707144,4,4,1
36723792,1,441,1
36742500,0,361,1
36761212,16,144,1
36780968,1,25,1
36798668,16,1,1
36816328,0,9,1
36832976,9,289,1
36851684,0,441,1
36870412,16,36,1
36889140,4,64,1
36906828,4,9,1
36923472,0,324,1
36942184,0,225,1
36960900,16,121,1
36980652,1,16,1
36998344,9,0,1
37014972,0,36,1
37032656,4,49,1
37050332,1,529,1
37069060,4,64,1
37086756,16,1,1
37104420,0,64,1
37122108,1,36,1
37139780,1,529,1
37158496,4,49,1
37176176,16,1,1
37193856,1,100,1
37212588,1,0,1
37229216,4,324,1
37247936,1,36,1
37265628,16,1,1
37283304,1,196,1
37302020,1,49,1
37319700,4,289,1
37338424,0,49,1
37356108,9,0,1
37372740,1,225,1
37391464,1,64,1
37409140,16,256,1
37428900,0,36,1
37446584,16,1,1
37464268,0,16,1
37481940,4,225,1
37500648,0,289,1
37519380,16,64,1
37538104,1,16,1
37555784,4,0,1
37572420,0,196,1
37591144,0,36,1
37608816,9,361,1
37627540,0,64,1
37645220,25,0,1
37662904,4,100,1
37681624,1,0,1
37698252,1,324,1
37716980,1,49,1
37734668,4,4,1
37751292,4,361,1
37770012,0,225,1
37788736,25,121,1
37808508,4,9,1
37825136,16,0,1
37842820,0,36,1
37860504,4,49,1
37878176,0,625,1
37896896,9,49,1
37914580,16,0,1
37932256,1,64,1
37949940,0,25,1
37967616,9,484,1
37986340,4,64,1
38004020,25,4,1
38021704,0,121,1
38040424,1,1,1
38057068,9,400,1
38075780,1,64,1
38093460,16,4,1
38111132,4,121,1
38129864,0,16,1
38147528,9,289,1
38166260,0,49,1
38183932,16,0,1
38201628,1,121,1
38220340,1,0,1
38236980,1,324,1
38255704,1,36,1
38273384,9,4,1
38290012,1,289,1
38308736,0,169,1
38327456,36,100,1
38347220,4,9,1
38363860,9,0,1
38380500,0,225,1
38399224,0,36,1
38416900,9,361,1
38435624,1,36,1
38453308,9,0,1
38469936,1,256,1
38488648,0,64,1
38506324,25,289,1
38526104,0,81,1
38543788,25,0,1
38561468,0,25,1
38579136,4,169,1
38597860,0,225,1
38616572,25,100,1
38636336,1,16,1
38654024,9,0,1
38670664,0,64,1
38688340,1,36,1
38706016,4,576,1
38724748,1,64,1
38742432,25,1,1
38760100,4,81,1
38777776,0,4,1
38794416,4,484,1
38813132,4,100,1
38831860,16,25,1
38850580,0,4,1
38867220,1,121,1
38885936,1,576,1
38904656,9,16,1
38922348,16,4,1
38940028,0,64,1
38957700,1,81,1
38975372,1,625,1
38994108,9,36,1
39011784,25,0,1
39029448,0,100,1
39048172,0,0,1
39064824,4,324,1
39083548,0,36,1
39101220,9,1,1
39117876,9,361,1
39136580,0,289,1
39155292,25,64,1
39174016,0,4,1
39190656,16,0,1
39208336,0,144,1
39227056,0,25,1
39244728,4,361,1
39263468,0,49,1
39281140,16,0,1
39298820,0,100,1
39317552,1,1,1
39334180,1,324,1
39352896,0,36,1
39370576,9,4,1
39387212,9,324,1
39405940,0,225,1
39424652,25,121,1
39444424,1,16,1
39462108,16,1,1
39479780,0,4,1
39496424,9,289,1
39515128,1,441,1
39533856,25,81,1
39552584,1,64,1
39570260,9,1,1
39586892,4,361,1
39605616,0,169,1
39624328,25,121,1
39644108,4,1,1
39660748,16,0,1
39678424,0,25,1
39696108,1,100,1
39714804,0,196,1
39733536,9,144,1
39752256,4,49,1
39769944,9,0,1
39786576,1,289,1
39805292,0,100,1
39824008,9,169,1
39842732,0,0,1
39859384,4,4,1
39876024,1,361,1
39894736,1,256,1
39913452,25,81,1
39932184,9,1,1
39948828,4,0,1
39965448,0,324,1
39984172,0,324,1
40002896,16,121,1
40022660,1,36,1
40040340,16,1,1
40058028,0,9,4
40074672,4,289,4
40093380,0,484,4
40112088,16,25,4
40130828,1,49,4
40148520,1,4,4
40165136,1,400,4
40183860,0,289,4
40202576,25,169,4
40222348,4,25,4
40240016,16,0,4
40257708,0,4,4
40274348,9,324,4
40293060,0,484,4
40311768,25,25,4
40330500,4,36,4
40348180,4,16,4
40365852,0,100,4
40384584,1,4,4
40401220,4,324,4
40419936,1,49,4
40437620,9,1,4
40454272,16,361,4
40474016,0,289,4
40492740,16,16,4
40511440,0,81,4
40529144,1,49,4
40546824,9,16,4
40564488,4,144,4
40583224,1,144,4
40601936,9,100,4
40620660,0,0,4
40637300,4,9,4
40653952,0,400,4
40672664,0,289,4
40691376,25,121,4
40711132,4,9,4
40727788,25,0,4
40745460,0,64,4
40763136,9,16,4
40780824,0,576,4
40799544,9,64,4
40817228,16,0,4
40834900,4,121,4
40853624,0,0,4
40870256,1,324,4
40888976,0,36,4
40906656,9,4,4
40923304,1,289,4
40942008,0,256,4
40960728,25,121,4
40980512,1,25,4
40998192,16,1,4
41015868,1,9,4
41032500,4,289,4
41051216,1,441,4
41069940,9,49,4
41087612,0,64,4
41105292,4,25,4
41122976,4,169,4
41141700,1,169,4
41160408,9,121,4
41179156,1,9,4
41195776,16,0,4
41213472,4,196,4
41232184,0,36,4
41249868,9,324,4
41268584,0,64,4
41286268,0,1,4
41302888,36,225,4
41322664,49,81,4
41341380,25,16,4
41360100,0,36,4
41377772,0,0,4
41394436,1,1,4
41411056,9,784,4
41429784,36,2401,4
41450580,64,784,4
41470328,1156,100,4
41492156,6084,0,4
41511924,1225,49,4
41532736,9,1089,4
41552492,36,1156,4
41573288,25,256,4
41593076,361,529,4
41613872,64,289,4
41633612,16,169,4
41653372,81,324,4
41673124,9,1936,4
41692880,196,0,4
41711596,361,0,4
41730328,3969,169,4
41752164,841,6724,4
41774000,529,676,4
41794812,121,4096,4
41816656,900,64,4
41836412,16,225,4
41856172,1,2809,4
41875924,256,6724,4
41897784,144,4,4
41916488,25,4761,4
41937300,0,961,4
41956016,25,169,4
41975776,9,49,4
41993456,36,1024,4
42014252,0,784,4
42032976,144,196,4
42053776,9,1,4
42070432,64,441,4
42090180,225,729,4
42110972,196,225,4
42131780,49,64,4
42150500,1,81,4
42168180,4,36,4
42185872,16,36,4
42204584,9,64,4
42222256,36,81,4
42240976,16,0,4
42258664,0,0,4
42275300,25,36,4
42294020,4,4,4
42310660,9,256,4
42329380,16,144,4
42349144,100,16,4
42368892,0,0,4
42385544,1,1,4
42402180,64,256,4
42421932,16,16,4
42440652,1,144,4
42459384,0,64,4
42477044,0,196,4
42495784,1,25,4
42513464,4,16,4
42531152,1,400,4
42549852,9,81,4
42567544,36,25,4
42586260,1,64,4
42603944,4,49,4
42621620,4,196,4
42640332,1,36,4
42658024,4,100,4
42676736,81,529,4
42696500,1,4,4
42713152,36,1,4
42730828,25,9,4
42748512,9,49,4
42766184,9,225,4
42784900,4,81,4
42802584,1,9,4
42819216,16,576,4
42838964,0,361,4
42857696,25,9,4
42875376,25,81,4
42894096,16,289,4
42913860,4,324,4
42932584,9,49,4
42950256,64,25,4
42968984,0,484,4
42987700,16,400,4
43007456,144,144,4
43028260,1,81,4
43045940,0,64,4
43063620,9,36,4
43081304,1,529,4
43100016,4,100,4
43118748,36,16,4
43137460,0,0,4
43154096,0,324,4
43172804,64,289,4
43192588,9,36,4
43210268,9,100,4
43228992,16,729,4
43248740,25,441,4
43268516,16,9,4
43286180,4,81,4
43303852,49,324,4
43323624,9,36,4
43341296,0,0,4
43357940,1,36,4
43375632,0,64,4
43393312,25,1,4
43410984,36,36,4
43429688,25,25,4
43448424,4,16,4
43466108,4,49,4
43483776,9,441,4
43502496,4,81,4
43520192,9,36,4
43537852,1,1521,4
43557612,1,2401,4
43577376,64,784,4
43597136,64,121,4
43616888,36,9,4
43634576,0,289,4
43653296,16,729,4
43673060,0,49,4
43690736,0,81,4
43708412,4,64,4
43726104,16,100,4
43745844,16,81,4
43764572,4,169,4
43783304,64,4,4
43800996,9,169,4
43819708,4,4,4
43836320,9,441,4
43855064,9,81,4
43872736,9,144,4
43891460,16,0,4
43909136,16,100,4
43928908,9,64,4
43946584,0,196,4
43965292,25,196,4
43985060,49,16,4
44003772,0,144,4
44022500,1,225,4
44041208,16,25,4
44059948,25,1,4
44077608,4,25,4
44095296,49,9,4
44112988,121,49,4
44132744,9,64,4
44150412,0,225,4
44169140,9,196,4
44187868,0,0,4
44204496,64,49,4
44223208,25,121,4
44242984,0,81,4
44260664,9,25,4
44278336,0,0,4
44294968,9,81,4
44312668,25,25,4
44331388,4,16,4
44349056,36,64,4
44367772,9,49,4
44385476,0,289,4
44404184,4,64,4
44421864,1,361,4
44440568,0,289,4
44459296,9,225,4
44478012,4,81,4
44495708,1,0,4
44512336,0,289,4
44531068,9,676,4
44549776,4,256,4
44568492,1,49,4
44586180,25,1,4
44603856,0,324,4
44622580,4,729,4
44641300,64,1,4
44658984,121,1,4
44677704,4,1,4
44694328,36,196,4
44714096,9,400,4
44732820,16,9,4
44750496,0,121,4
44769220,0,81,4
44786912,36,16,4
44805616,9,25,4
44823304,25,441,4
44843068,1,225,4
44861780,25,36,4
44880496,0,36,4
44898188,9,225,4
44916900,100,25,4
44936664,4,576,4
44955372,25,484,4
44975148,1,0,4
44991792,16,25,4
45010504,81,169,4
45030260,9,64,4
45047940,9,25,4
45065628,0,9,4
45082264,121,961,4
45103052,16,625,4
45122820,36,4,4
45140504,16,1,4
45158176,16,0,4
45175868,0,4,4
45192500,0,529,4
45211216,16,361,4
45230968,121,1,4
45249708,1,0,4
45266348,9,1,4
45282984,36,144,4
45302736,9,49,4
45320420,25,4,4
45338096,1,100,4
45356812,36,144,4
45376580,0,16,4
45394260,1,64,4
45411932,49,0,4
45429616,121,169,4
45450428,0,144,4
45469136,1,361,4
45487844,0,225,4
45506588,64,36,4
45525304,16,1,4
45542976,16,9,4
45560652,0,36,4
45578344,4,1089,4
45598108,121,625,4
45618896,100,196,4
45639704,9,256,4
45658420,1,36,4
45676088,1,5476,4
45695836,121,25281,4
45718724,841,7396,4
45740576,529,256,4
45761380,1,484,4
45780088,0,1156,4
45799856,100,5184,4
45821684,169,961,4
45842500,100,9,4
45861224,0,9,4
45877856,100,100,4
45898656,49,9,4
45916344,0,16,4
45934024,9,16,4
45951696,49,81,4
45970412,0,1,4
45987056,144,169,4
46007860,1,16,4
46025536,81,0,4
46043228,4,25,4
46060916,9,25,4
46078576,1,4,4
46095216,1,441,4
46113940,0,256,4
46132660,0,49,4
46150336,25,169,4
46170092,4,169,4
46188824,16,1,4
46206504,36,4,4
46224168,121,289,4
46244988,16,100,4
46264752,9,0,4
46281380,9,25,4
46299044,36,64,4
46317784,100,289,4
46338588,16,4,4
46356256,4,1,4
46372896,4,4,4
46389544,25,81,4
46408252,16,121,4
46428024,36,9,4
46445704,1,64,4
46463384,9,81,4
46481060,4,36,4
46498728,25,144,4
46518500,9,289,4
46537212,25,4,4
46554892,1,36,4
46572584,0,36,4
46590260,4,64,4
46607940,16,25,4
46626656,49,441,4
46646428,0,25,4
46664108,9,16,4
46681792,4,49,4
46699460,36,49,4
46718192,4,25,4
46735864,49,169,4
46755616,25,25,4
46774348,0,0,4
46790988,0,4,4
46807616,25,169,4
46827376,16,225,4
46847136,4,16,4
46864812,16,256,4
46884580,9,64,4
46902244,36,25,4
46920992,16,9,4
46938684,9,324,4
46957372,0,121,4
46976108,1,225,4
46994820,121,49,4
47014576,25,1,4
47032240,9,81,4
47049940,0,169,4
47068656,9,9,4
47085300,49,1,4
47102968,100,81,4
47122736,36,81,4
47141468,4,1,4
47158108,100,196,4
47178912,144,144,4
47199704,9,49,4
47217384,9,324,4
47236084,0,81,4
47253780,64,121,4
47273544,25,49,4
47292268,1,0,4
47308900,49,1,4
47326576,4,100,4
47345296,9,64,4
47362972,1,289,4
47381708,0,169,4
47400420,25,1,4
47418100,25,4,4
47435788,1,196,4
47454500,16,324,4
47474256,0,0,4
47490896,0,1,4
47507544,4,121,4
47526256,1,16,4
47543940,100,100,4
47564736,36,121,4
47584508,0,81,4
47602180,0,196,4
47620900,9,529,4
47639628,49,49,4
47658348,16,9,4
47676024,4,100,4
47694740,1,169,4
47713468,16,4,4
47731136,1,4,4
47747780,4,0,4
47764412,4,121,4
47783148,9,529,4
47801860,4,81,4
47819540,64,9,4
47837228,4,36,4
47854908,1,25,4
47872584,16,441,4
47892344,0,64,4
47910028,16,1,4
47927704,1,1,4
47944340,16,100,4
47964092,9,100,4
47982820,16,36,4
48001540,9,0,4
48018180,4,16,4
48035876,9,196,4
48054580,0,49,4
48072252,25,169,4
48092020,1,36,4
48109700,9,49,4
48127376,4,64,4
48145060,1,121,4
48163772,9,9,4
48180424,4,169,4
48199136,4,64,4
48216816,1,4,4
48233456,16,100,4
48253220,9,81,4
48270896,25,81,4
48289628,36,49,4
48308336,0,9,4
48324976,4,100,4
48343696,4,0,4
48360336,1,484,4
48379072,0,49,4
48396740,0,16,4
48414424,9,9,4
48431060,36,196,4
48450828,4,25,4
48468508,81,25,4
48487228,9,9,4
48503860,9,169,4
48522588,4,81,4
48540252,16,81,4
48558972,0,169,4
48577708,9,256,4
48596432,4,9,4
48613064,0,225,4
48631776,25,225,4
48651548,4,64,4
48669228,9,1,4
48685848,121,961,4
48706664,169,2916,4
48728496,256,169,4
48749300,121,100,4
48770100,9,49,4
48787788,0,4,4
48804416,9,36,4
48822088,100,100,4
48842908,4,225,4
48861616,4,16,4
48879300,36,0,4
48896972,9,121,4
48915704,1,49,4
48933384,9,64,4
48951064,1,0,4
48967700,9,361,4
48986420,1,324,4
49005128,16,625,4
49024900,36,324,4
49044664,1,25,4
49062328,9,676,4
49081060,49,225,4
49100816,81,0,4
49118496,1,169,4
49137216,4,100,4
49155940,81,4,4
49173628,9,1,4
49190268,1,64,4
49207932,9,1225,4
49227704,49,1225,4
49248504,36,49,4
49267228,25,16,4
49285944,4,1,4
49302576,16,81,4
49321308,1,16,4
49338976,1,256,4
49357688,64,441,4
49377464,121,225,4
49398260,25,25,4
49416976,16,36,4
49435708,0,324,4
49454416,25,289,4
49474176,49,100,4
49493932,16,196,4
49513704,4,81,4
49531384,25,576,4
49551132,0,576,4
49569864,81,0,4
49587544,36,9,4
49605208,256,361,4
49626012,25,196,4
49645792,16,9,4
49663460,1,49,4
49681132,64,16,4
49699868,1,49,4
49717544,36,121,4
49737296,4,256,4
49756016,25,64,4
49774752,0,16,4
49792420,4,36,4
49810100,1,841,4
49828816,9,1089,4
49848580,121,36,4
49868332,9,0,4
49884980,4,144,4
49903700,1,196,4
49922420,25,64,4
49941132,25,4,4
49958812,9,81,4
49976508,25,1,4
49994176,0,0,4
50010824,4,225,4
50029536,4,36,4
50047220,49,121,4
50066992,1,1,3
50083616,16,9,3
50101304,1,144,3
50120020,16,0,3
50137696,1,36,3
50155376,0,121,3
50174108,9,100,3
50192824,9,36,3
50210504,16,4,3
50228184,36,121,3
50247940,4,289,3
50266664,4,0,3
50283304,4,4,3
50299948,9,144,3
50318668,1,49,3
50336332,16,169,3
50356100,25,169,3
50375868,144,49,3
50395620,9,36,3
50413300,1,4,3
50429928,0,0,3
50446588,0,16,3
50464256,9,144,3
50482984,36,16,3
50501696,25,9,3
50519380,16,64,3
50538096,1,36,3
50555788,16,64,3
50574504,16,0,3
50592176,9,25,3
50609868,4,49,3
50627536,25,0,3
50645216,36,64,3
50663944,0,121,3
50682660,1,100,3
50701372,9,0,3
50718016,1,144,3
50736740,9,121,3
50755456,36,49,3
50774180,25,4,3
50791860,1,9,3
50808500,0,225,3
50827216,1,16,3
50844896,9,729,3
50863624,4,900,3
50882340,49,196,3
50902108,36,16,3
50920824,9,64,3
50938484,4,841,3
50957204,64,1089,3
50978024,100,9,3
50996736,4,169,3
51015456,1,196,3
51034188,9,81,3
51051856,36,289,3
51071624,36,1,3
51089296,9,36,3
51106980,16,64,3
51125692,4,225,3
51144412,9,16,3
51162100,1,1,3
51178744,0,1,3
51195384,0,81,3
51213056,1,289,3
51231788,9,25,3
51249472,25,4,3
51267144,4,100,3
51285856,0,25,3
51303544,1,361,3
51322264,9,324,3
51340972,64,16,3
51359684,16,324,3
51379468,1,324,3
51398196,1,9,3
51414816,1,529,3
51433540,1,1024,3
51453304,0,289,3
51472016,16,196,3
51491768,4,361,3
51510508,4,196,3
51529216,0,225,3
51547940,9,324,3
51566668,0,1,3
51583308,36,324,3
51603056,4,289,3
51621768,25,7396,3
51642576,256,27556,3
51665440,2116,169,3
51687276,1024,11236,3
51711216,144,3136,3
51733044,169,729,3
51753860,81,2809,3
51774660,25,100,3
51794416,4,3364,3
51814176,9,441,3
51832904,225,81,3
51852668,25,0,3
51870340,121,4,3
51889052,64,4,3
51906740,9,1,3
51923388,25,121,3
51943140,81,144,3
51962904,1,1,3
51979544,36,49,3
51998256,9,1,3
52014900,9,100,3
52033624,1,36,3
52051292,64,441,3
52071060,1,100,3
52089772,49,49,3
52108504,25,169,3
52128244,0,144,3
52146976,64,36,3
52165708,81,16,3
52184428,0,1,3
52201056,1,81,3
52218740,100,36,3
52238504,25,0,3
52256180,1,36,3
52273860,36,49,3
52292572,64,16,3
52311304,9,225,3
52330028,64,64,3
52348740,100,81,3
52368496,25,121,3
52388264,25,4,3
52405940,1,9,3
52422564,81,64,3
52441296,9,64,3
52458972,289,4,3
52477692,0,100,3
52496416,36,121,3
52516176,9,0,3
52532816,100,225,3
52553620,729,9,3
52572336,100,100,3
52593132,16,36,3
52611848,0,16,3
52629548,4,49,3
52647224,4,121,3
52665936,100,9,3
52684660,169,36,3
52704420,0,64,3
52722104,49,289,3
52741860,49,144,3
52761620,81,0,3
52779300,16,81,3
52798016,4,25,3
52815696,4,4,3
52832336,4,64,3
52850016,0,196,3
52868736,0,0,3
52885376,0,0,3
52902020,121,324,3
52922820,100,400,3
52943620,1,9,3
52960252,144,81,3
52980024,289,16,3
52999776,121,4,3
53018504,9,9,3
53035144,16,1,3
53052816,100,36,3
53072576,25,9,3
53090240,64,0,3
53107936,81,100,3
53127708,1,4,3
53144352,1,4,3
53160984,49,361,3
53180740,16,361,3
53200492,25,16,3
53219216,361,9,3
53237948,169,1,3
53256652,36,16,3
53275372,64,16,3
53294104,4,4,3
53310736,25,196,3
53330496,4,196,3
53349220,0,1,3
53365856,49,0,3
53383548,169,4,3
53402256,121,16,3
53422020,9,16,3
53439700,81,4,3
53457368,324,361,3
53478176,36,225,3
53497940,100,0,3
53516660,16,9,3
53534336,49,4,3
53552016,1,25,3
53569696,36,0,3
53587380,256,169,3
53608180,441,1,3
53626904,100,16,3
53646672,0,25,3
53664344,0,9,3
53680980,4,144,3
53699700,16,4,3
53717376,36,441,3
53737132,49,64,3
53755844,100,4,3
53774584,25,1,3
53792256,1,49,3
53809936,576,144,3
53830740,100,576,3
53851544,16,1,3
53869216,81,324,3
53888952,1024,64,3
53909772,1225,64,3
53930588,36,0,3
53948264,1521,196,3
53970100,676,225,3
53990900,9,1,3
54007540,324,225,3
54028348,36,49,3
54047060,169,16,3
54066816,256,9,3
54085528,9,0,3
54102192,25,25,3
54120892,49,4,3
54138580,529,9,3
54157292,81,16,3
54176024,9,16,3
54193716,36,9,3
54211376,196,9,3
54230104,100,121,3
54250908,9,256,3
54269616,81,64,3
54288324,144,1,3
54307052,16,64,3
54325776,729,64,3
54345532,144,100,3
54366344,9,36,3
54384024,9,196,3
54402732,169,36,3
54422492,49,0,3
54440188,4,4,3
54456828,64,196,3
54476568,121,256,3
54497388,16,9,3
54515056,64,169,3
54534808,1,49,3
54552492,64,4,3
54570180,64,49,3
54588900,1,0,3
54605536,169,49,3
54625320,900,16,3
54645056,289,81,3
54664820,9,4,3
54681464,1,0,3
54698108,81,64,3
54716820,0,36,3
54734496,64,121,3
54754256,144,121,3
54775068,16,16,3
54793768,225,196,3
54814576,49,4,3
54832268,49,1,3
54849940,361,4,3
54868648,1369,100,3
54890484,1089,361,3
54912352,4,1,3
54928972,225,225,3
54949780,0,169,3
54968504,100,16,3
54988260,0,1,3
55004896,64,144,3
55024660,49,121,3
55044428,121,0,3
55063140,196,4,3
55081864,9,0,3
55098508,9,16,3
55116180,121,16,3
55135932,4,36,3
55153604,49,196,3
55173384,841,16,3
55193132,1849,64,3
55213932,25,9,3
55231628,1,100,3
55250340,0,4,3
55266968,529,36,3
55286732,324,121,3
55307548,81,121,3
55327296,289,25,3
55347060,196,25,3
55366824,25,9,3
55384500,49,0,3
55402180,64,81,3
55420892,49,25,3
55439620,121,0,3
55458344,225,0,3
55477060,289,81,3
55496816,64,25,3
55515536,64,0,3
55533212,144,49,3
55552968,36,4,3
55570672,1,1,3
55587288,144,25,3
55607056,0,49,3
55624744,100,121,3
55645536,25,144,3
55665296,36,9,3
55682972,289,0,3
55701704,529,1,3
55720424,25,25,3
55739140,36,9,3
55756832,121,9,3
55775556,81,0,3
55793216,25,9,3
55810904,1,100,3
55829628,25,36,3
55848344,196,0,3
55867060,121,64,3
55886816,1,36,3
55904500,81,81,3
55923228,25,121,3
55942976,1225,25,3
55963776,900,64,3
55983536,1,0,3
56000176,81,100,3
56019932,36,49,3
56038660,144,36,3
56058424,225,9,3
56077140,169,4,3
56095868,25,81,3
56114584,9,9,3
56131216,25,36,3
56149936,9,0,3
56166584,144,4,3
56185292,9,49,3
56202968,784,81,3
56222736,100,144,3
56243540,196,25,3
56263288,0,0,3
56279940,169,1,3
56298676,1,4,3
56315312,49,1,3
56332984,144,256,3
56353764,441,256,3
56374580,841,81,3
56394328,196,16,3
56414096,100,16,3
56433860,36,0,3
56451532,16,4,3
56469224,1,121,3
56487924,25,81,3
56506656,100,16,3
56526416,1,49,3
56544088,0,169,3
56562832,16,4,3
56580504,121,225,3
56601296,256,121,3
56622096,16,64,3
56640816,100,4,3
56659544,16,9,3
56677208,100,36,3
56696980,0,0,3
56713624,196,64,3
56733384,289,36,3
56753132,144,4,3
56771868,81,9,3
56789544,49,121,3
56809296,361,100,3
56830100,676,16,3
56849860,25,0,3
56867532,169,1,3
56886252,100,1,3
56904984,36,0,3
56922660,25,144,3
56942420,4,121,3
56961136,0,25,3
56978820,400,196,3
56999620,361,49,3
57019372,16,0,3
57037064,16,16,3
57055792,36,4,3
57073464,49,4,3
57091160,196,36,3
57110904,16,36,3
57129620,9,9,3
57146236,25,81,3
57164980,1,25,3
57182652,100,49,3
57202416,16,36,3
57221144,100,25,3
57240900,169,121,3
57261688,81,0,3
57279372,36,4,3
57297072,4,49,3
57314736,49,64,3
57333464,121,49,3
57353212,121,81,3
57372988,36,64,3
57391704,1,1,3
57408348,1,16,3
57426036,49,25,3
57444752,9,0,3
57461368,121,81,3
57481124,36,64,3
57499860,9,1,3
57516512,441,225,3
57537296,1156,196,3
57559140,36,16,3
57577856,36,225,3
57597616,4,4,3
57614256,0,9,3
57630908,400,81,3
57650656,900,16,3
57670424,9,9,3
57687068,25,64,3
57705784,100,4,3
57724496,529,16,3
57744260,400,25,3
57764020,16,100,3
57783776,361,25,3
57803544,625,4,3
57822256,100,0,3
57840980,169,16,3
57860740,169,4,3
57879452,36,16,3
57898180,0,16,3
57915852,16,81,3
57934576,4,64,3
57952252,9,81,3
57969956,256,4,3
57988664,196,0,3
58007372,64,49,3
58026104,0,25,3
58043780,49,16,3
58062508,25,4,3
58080168,0,49,3
58097872,36,4,3
58115536,64,256,3
58135300,36,36,3
58154020,16,1,3
58171696,144,0,3
58190416,100,49,3
58210184,256,49,3
58229944,196,36,3
58249700,36,16,3
58268412,225,9,3
58287136,225,16,3
58306904,256,9,3
58325612,81,1,3
58343304,4,1,3
58359944,0,49,3
58377616,169,25,3
58397376,169,169,3
58418176,0,1,3
58434832,9,49,3
58452508,64,25,3
58471216,4,0,3
58487868,1,256,3
58506580,81,144,3
58526324,64,36,3
58545052,81,64,3
58563788,121,9,3
58582500,1,9,3
58599136,81,4,3
58616812,4,16,3
58634512,25,196,3
58654256,9,49,3
58671940,36,9,3
58689628,0,25,3
58707300,16,81,3
58726012,196,324,3
58746812,64,9,3
58764504,4,36,3
58782184,1,9,3
58798820,100,4,3
58817532,36,49,3
58836256,49,1,3
58853936,100,324,3
58874744,81,81,3
58893468,64,49,3
58912180,0,49,3
58929852,81,0,3
58947536,16,144,3
58967300,81,36,3
58986024,144,1,3
59004732,4,49,3
59022420,196,0,3
59041144,16,16,3
59059860,0,4,3
59076500,49,121,3
59096268,64,121,3
59116016,36,0,3
59133696,144,64,3
59153464,144,16,3
59173228,49,1,3
59190900,64,4,3
59208576,36,1,3
59226272,9,36,3
59243940,144,64,3
59263708,4,1,3
59280324,400,1,3
59299060,289,25,3
59318828,121,1,3
59337536,144,36,3
59357304,9,144,3
59376028,0,16,3
59393708,1,0,3
59410344,0,4,3
59426992,36,9,3
59444664,49,9,3
59462332,49,169,3
59482092,289,25,3
59501868,144,9,3
59520576,1,4,3
59537216,100,0,3
59555944,529,49,3
59575696,529,64,3
59595456,225,36,3
59615212,169,16,3
59634988,196,1,3
59653700,144,16,3
59673460,0,1,3
59690108,100,9,3
59708832,4,9,3
59725464,256,225,3
59746248,100,361,3
59767068,361,4,3
59785768,576,196,3
59806576,0,169,3
59825300,49,169,3
59845068,256,64,3
59864820,16,0,3
59882488,225,4,3
59901224,49,16,3
59919932,169,9,3
59938652,36,9,3
59956340,196,36,3
59976104,225,81,3
59995860,121,1,3
60014572,0,16,3
60032272,289,9,3
60050988,289,9,3
60069704,484,1,7
60088420,900,16,7
60108184,64,49,7
60126900,9,16,7
60144572,16,169,7
60164340,16,121,7
60184104,144,4,7
60202816,169,9,7
60221540,144,100,7
60242348,1,4,7
60258980,4,25,7
60276660,49,64,7
60295384,9,9,7
60312016,256,144,7
60332816,400,144,7
60353624,225,49,7
60373376,1369,49,7
60394180,81,81,7
60412896,36,25,7
60431628,64,16,7
60450348,576,4,7
60469064,400,1,7
60487784,36,0,7
60505472,16,1,7
60523140,25,81,7
60541852,144,49,7
60561628,36,25,7
60580332,0,4,7
60596972,4,1,7
60613616,1,81,7
60631308,36,16,7
60650028,36,64,7
60668736,25,0,7
60686428,0,9,7
60703080,64,64,7
60721784,25,81,7
60740496,225,49,7
60760252,1024,64,7
60781052,49,25,7
60799784,1681,81,7
60820584,81,121,7
60840348,576,1,7
60859060,36,81,7
60877776,225,16,7
60897540,16,9,7
60915224,225,49,7
60934976,64,25,7
60953704,400,0,7
60972428,361,9,7
60991140,16,64,7
61009852,144,25,7
61029628,16,1,7
61047304,324,1,7
61066008,361,49,7
61085784,4,49,7
61103464,16,4,7
61121136,36,36,7
61139852,64,64,7
61158580,784,100,7
61179380,400,289,7
61200180,196,81,7
61219944,49,1,7
61237624,4,64,7
61255300,1,49,7
61272976,0,9,7
61289620,9,81,7
61307308,1,289,7
61326020,16,36,7
61344736,36,1,7
61362428,9,25,7
61380104,1,36,7
61397788,9,289,7
61416504,0,16,7
61434180,4,4,7
61450820,1,144,7
61469536,1,16,7
61487228,0,144,7
61505944,9,36,7
61523624,1,1,7
61540260,9,169,7
61558980,0,144,7
61577684,676,64,7
61597452,1849,169,7
61619292,256,81,7
61639052,0,2500,7
61658812,16,3969,7
61679596,196,625,7
61700420,225,4624,7
61722232,16,18225,7
61744088,576,784,7
61764892,676,1089,7
61786724,144,256,7
61807528,49,4,7
61825228,49,576,7
61844976,49,16,7
61863696,0,9,7
61880340,81,4,7
61898020,4,0,7
61914664,16,36,7
61933380,400,16,7
61953140,841,4,7
61971864,49,1,7
61989540,0,225,7
62008252,0,49,7
62025944,4,196,7
62044652,1,100,7
62063380,0,0,7
62080020,4,144,7
62098752,0,1,7
62115384,16,196,7
62135148,1,25,7
62152828,25,9,7
62170504,0,16,7
62188180,1,25,7
62205852,1,324,7
62224588,1,16,7
62242260,4,4,7
62258912,1,196,7
62277620,0,36,7
62295312,9,121,7
62314028,0,25,7
62331696,9,4,7
62348340,4,121,7
62367064,0,81,7
62384736,9,144,7
62403464,0,64,7
62421148,9,4,7
62437784,9,196,7
62456500,0,196,7
62475208,16,64,7
62493948,1,36,7
62511616,0,0,7
62528260,9,144,7
62546976,64,16,7
62565696,144,121,7
62586496,25,49,7
62605212,0,81,7
62622904,1,1,7
62639536,1,4,7
62656184,1,64,7
62673856,0,400,7
62692580,1,25,7
62710256,1,4,7
62726896,1,196,7
62745620,0,196,7
62764336,16,36,7
62783060,9,9,7
62799704,4,0,7
62816352,4,256,7
62835064,0,289,7
62853776,16,36,7
62872492,9,36,7
62890184,0,9,7
62906812,4,144,7
62925544,1,100,7
62944248,16,81,7
62962988,1,9,7
62979628,9,0,7
62996268,4,225,7
63014980,0,196,7
63033704,16,81,7
63052416,1,49,7
63070092,4,0,7
63086736,1,169,7
63105468,1,64,7
63123136,4,169,7
63141852,0,36,7
63159548,9,1,7
63176188,4,196,7
63194900,0,144,7
63213620,16,49,7
63232348,4,0,7
63248988,4,1,7
63265612,9,196,7
63284348,25,144,7
63304100,1,1,7
63320728,0,121,7
63339452,1,100,7
63358188,9,49,7
63375868,9,36,7
63393532,0,169,7
63412264,1,25,7
63429944,4,25,7
63447616,0,25,7
63465300,9,64,7
63482976,9,225,7
63501700,4,0,7
63518340,9,0,7
63534980,4,256,7
63553704,0,225,7
63572416,25,49,7
63591148,4,16,7
63608808,4,0,7
63625456,4,144,7
63644184,0,49,7
63661856,9,144,7
63680592,0,36,7
63698276,9,1,7
63714912,1,225,7
63733612,0,144,7
63752336,16,64,7
63771052,4,1,7
63787712,4,1,7
63804328,4,196,7
63823056,0,144,7
63841776,16,81,7
63860500,4,25,7
63878184,4,0,7
63894832,1,196,7
63913544,0,100,7
63932252,16,49,7
63950984,0,9,7
63967628,4,9,7
63984248,1,196,7
64002972,1,121,7
64021708,4,49,7
64039384,4,1,7
64056028,1,9,7
64072660,0,64,7
64090344,1,400,7
64109068,1,36,7
64126736,9,9,7
64143380,4,196,7
64162108,1,196,7
64180816,9,49,7
64198500,1,25,7
64216196,9,4,7
64232824,0,169,7
64251536,0,256,7
64270248,4,25,7
64287956,1,25,7
64305624,1,16,7
64323292,4,81,7
64340968,4,225,7
64359708,4,0,7
64376356,9,1,7
64392988,4,289,7
64411708,1,196,7
64430424,16,64,7
64449148,1,25,7
64466816,9,0,7
64483460,1,144,7
64502184,0,36,7
64519856,4,169,7
64538576,0,36,7
64556276,4,0,7
64572904,4,225,7
64591616,0,144,7
64610340,16,36,7
64629064,4,1,7
64645704,4,1,7
64662332,4,196,7
64681064,1,144,7
64699784,9,100,7
64718500,4,25,7
64736172,9,0,7
64752832,4,196,7
64771544,0,81,7
64789224,4,169,7
64807924,0,49,7
64825620,9,1,7
64842268,9,196,7
64860976,0,100,7
64879704,16,64,7
64898432,1,4,7
64915068,4,0,7
64931716,0,256,7
64950420,0,196,7
64969132,4,64,7
64986824,0,25,7
65004500,25,4,7
65022188,9,100,7
65040900,0,25,7
65058572,9,196,7
65077308,1,36,7
65094988,9,0,7
65111632,1,225,7
65130336,0,144,7
65149060,9,36,7
65166756,1,1,7
65183388,0,1,7
65200020,1,81,7
65217696,4,324,7
65236416,4,25,7
65254108,9,4,7
65270740,1,225,7
65289472,0,225,7
65308184,9,49,7
65325860,1,36,7
65343544,4,9,7
65360176,4,144,7
65378896,1,225,7
65397612,16,25,7
65416348,4,16,7
65434040,4,1,7
65450676,1,225,7
65469364,1,169,7
65488100,16,49,7
65506816,4,4,7
65523464,1,0,7
65540104,4,196,7
65558828,1,169,7
65577532,16,81,7
65596260,4,25,7
65613952,9,0,7
65630596,1,196,7
65649304,0,81,7
65666976,9,169,7
65685708,4,49,7
65703380,64,1,7
65721048,16,64,7
65739760,0,0,7
65756424,4,169,7
65775148,0,16,7
65792824,9,0,7
65809476,4,225,7
65828180,0,196,7
65846896,25,81,7
65865628,1,25,7
65883304,4,0,7
65899940,0,196,7
65918656,0,64,7
65936328,9,196,7
65955068,1,36,7
65972740,9,1,7
65989384,4,196,7
66008100,1,144,7
66026820,9,49,7
66044500,1,1,7
66061140,1,9,7
66077780,0,49,7
66095456,4,324,7
66114180,1,25,7
66131860,9,4,7
66148512,1,225,7
66167220,0,169,7
66185936,16,81,7
66204652,4,36,7
66222344,9,1,7
66238980,4,144,7
66257700,0,64,7
66275384,9,144,7
66294108,1,25,7
66311784,9,0,7
66328424,9,225,7
66347140,0,196,7
66365860,9,49,7
66383544,1,9,7
66400172,1,16,7
66417856,1,36,7
66435536,9,289,7
66454260,0,9,7
66470896,16,1,7
66488596,1,144,7
66507308,0,49,7
66524980,9,169,7
66543708,0,36,7
66561384,9,1,7
66578008,9,169,7
66596736,1,100,7
66615464,9,64,7
66633152,1,1,7
66649780,1,4,7
66666416,0,81,7
66684104,1,400,7
66702824,1,36,7
66720496,9,4,7
66737132,1,225,7
66755856,0,169,7
66774568,16,81,7
66793308,1,25,7
66810988,4,0,7
66827628,1,225,7
66846344,0,100,7
66865052,4,49,7
66882740,1,9,7
66899384,1,1,7
66916004,0,100,7
66934728,1,225,7
66953468,9,4,7
66970100,16,1,7
66987788,1,121,7
67006516,0,9,7
67023140,9,196,7
67041868,1,25,7
67059536,4,4,7
67076176,9,169,7
67094908,1,169,7
67113620,9,49,7
67131300,1,36,7
67148992,16,4,7
67166672,1,144,7
67185372,0,121,7
67204088,16,25,7
67222820,4,9,7
67239472,1,1,7
67256092,1,169,7
67274824,0,100,7
67293544,16,100,7
67313308,4,9,7
67329936,9,0,7
67346588,1,169,7
67365304,1,49,7
67382980,1,196,7
67401684,0,49,7
67419388,4,0,7
67436008,0,225,7
67454740,1,100,7
67473464,25,64,7
67492192,4,1,7
67508828,4,0,7
67525468,0,225,7
67544180,0,196,7
67562900,9,49,7
67580576,1,1,7
67597216,0,4,7
67613860,0,36,7
67631536,9,256,7
67650260,1,16,7
67667940,16,9,7
67685632,1,81,7
67703296,0,64,7
67720980,9,121,7
67739708,1,36,7
67757384,4,9,7
67774012,4,144,7
67792732,4,256,7
67811468,4,9,7
67828108,4,9,7
67844752,0,225,7
67863456,0,121,7
67882176,16,49,7
67900900,1,0,7
67917544,16,0,7
67935200,4,64,7
67952900,0,16,7
67970596,4,144,7
67989300,0,36,7
68006988,4,9,7
68023632,1,196,7
68042344,0,225,7
68061052,16,36,7
68079784,4,16,7
68097460,1,1,7
68114100,1,169,7
68132812,0,100,7
68151544,16,81,7
68170276,1,4,7
68186900,4,0,7
68203556,1,225,7
68222264,0,169,7
68240972,9,81,7
68258668,1,25,7
68276344,4,4,7
68292988,1,169,7
68311700,1,225,7
68330416,9,49,7
68348108,4,36,7
68365788,4,9,7
68382424,4,196,7
68401124,0,324,7
68419864,9,4,7
68436508,4,16,7
68454168,0,81,7
68471856,0,0,7
68488504,4,196,7
68507220,0,16,7
68524900,9,16,7
68542592,1,49,7
68560260,1,289,7
68578980,1,4,7
68595612,1,0,7
68612260,0,225,7
68630980,1,196,7
68649700,9,49,7
68667372,4,25,7
68685076,16,4,7
68702756,4,144,7
68721452,0,121,7
68740180,9,49,7
68757868,1,1,7
68774508,0,1,7
68791140,1,81,7
68808820,4,324,7
68827548,1,25,7
68845228,9,4,7
68861864,1,196,7
68880588,0,169,7
68899296,16,64,7
68918024,1,9,7
68934648,4,0,7
68951300,1,169,7
68970020,0,169,7
68988736,9,49,7
69006428,1,16,7
69024108,4,9,7
69040748,4,144,7
69059452,4,289,7
69078188,1,9,7
69094828,4,4,7
69111448,1,196,7
69130172,1,100,7
69148908,16,64,7
69167624,4,1,7
69184264,4,0,7
69200904,0,196,7
69219628,0,169,7
69238336,9,81,7
69256012,4,36,7
69273704,4,4,7
69290340,4,169,7
69309060,1,225,7
69327776,9,36,7
69345456,4,25,7
69363140,1,9,7
69379788,1,144,7
69398484,1,324,7
69417224,4,4,7
69433860,4,9,7
69450500,1,196,7
69469224,1,100,7
69487936,16,81,7
69506660,4,9,7
69523300,4,1,7
69539944,0,196,7
69558664,0,196,7
69577384,9,81,7
69595052,4,36,7
69612740,4,9,7
69629380,9,144,7
69648096,1,225,7
69666804,9,25,7
69684508,9,25,7
69702188,4,9,7
69718828,4,144,7
69737540,1,324,7
69756268,4,1,7
69772900,4,4,7
69789540,1,169,7
69808264,1,121,7
69826976,25,64,7
69845696,4,16,7
69863384,9,1,7
69880036,0,144,7
69898744,0,49,7
69916424,4,225,7
69935144,0,64,7
69952828,4,0,7
69969448,9,196,7
69988176,1,81,7
70005864,16,100,7
70025628,0,25,7
70043304,9,0,7
70059936,0,121,6
70078672,0,16,6
70096340,1,144,6
70115048,0,4,6
70131696,1,0,6
70148348,1,144,6
70167064,0,121,6
70185780,16,64,6
70204508,4,25,6
70222188,9,0,6
70238828,4,225,6
70257532,0,144,6
70276260,9,36,6
70293936,1,4,6
70310584,0,0,6
70327200,0,81,6
70344908,4,289,6
70363620,4,16,6
70381308,9,4,6
70397940,0,225,6
70416660,0,169,6
70435376,9,64,6
70453056,4,9,6
70469700,0,16,6
70487380,1,36,6
70505060,4,289,6
70523780,1,36,6
70541468,9,1,6
70558116,1,196,6
70576816,0,64,6
70594496,4,169,6
70613228,0,36,6
70630900,4,1,6
70647540,1,169,6
70666264,0,100,6
70684984,9,49,6
70702660,1,0,6
70719300,0,1,6
70735952,1,64,6
70753624,4,289,6
70772344,1,25,6
70790020,1,25,6
70807696,4,64,6
70825384,64,25,6
70844092,441,256,6
70864892,25,196,6
70884660,64,9,6
70902348,1,49,6
70920020,1,4,6
70936676,4,225,6
70955380,121,361,6
70976172,289,49,6
70995928,36,121,6
71015700,49,0,6
71033376,81,361,6
71053136,529,324,6
71073952,16,16,6
71092664,4,25,6
71110332,729,4,6
71129048,1156,49,6
71149860,196,64,6
71169616,0,9,6
71186256,36,49,6
71204980,144,49,6
71224736,225,4,6
71243440,16,64,6
71262164,2916,36,6
71282984,1024,81,6
71303772,36,2304,6
71324564,5184,1089,6
71347464,13456,324,6
71370324,1444,256,6
71392152,3844,289,6
71414020,3025,576,6
71435860,324,225,6
71456660,4,16,6
71474340,169,4,6
71493052,1521,1,6
71512808,289,81,6
71532572,196,0,6
71551304,16,64,6
71570012,1764,81,6
71590816,1521,64,6
71611612,2116,25,6
71632404,12321,676,6
71655292,17424,1600,6
71679228,2304,100,6
71701044,3844,196,6
71722884,14884,625,6
71745772,2704,841,6
71767600,289,4,6
71786344,1849,4,6
71806092,11449,324,6
71828968,12544,784,6
71851856,1089,256,6
71873700,1296,9,6
71893452,1936,36,6
71914260,1296,121,6
71936100,1369,0,6
71955864,841,1,6
71974572,64,49,6
71993284,1024,49,6
72014100,676,81,6
72033852,9,25,6
72051528,49,49,6
72070256,225,4,6
72088980,2601,121,6
72110812,4,100,6
72129524,2704,49,6
72150340,49,169,6
72170092,1296,25,6
72190896,16,1,6
72208572,1936,169,6
72230420,2025,49,6
72251204,0,0,6
72267856,144,64,6
72287616,1369,25,6
72308412,4356,169,6
72330252,6400,529,6
72352088,3844,676,6
72373928,361,256,6
72394728,1936,64,6
72415540,1764,64,6
72436332,4356,81,6
72457124,1156,289,6
72478980,16,4,6
72496660,1936,16,6
72517456,3136,529,6
72539296,484,64,6
72559064,169,49,6
72578808,2601,9,6
72598584,3364,144,6
72620428,1681,441,6
72642260,529,16,6
72662012,49,49,6
72680748,36,0,6
72698408,256,25,6
72718164,0,9,6
72734824,1600,9,6
72754580,361,64,6
72774328,2116,4,6
72794092,1936,169,6
72815948,121,36,6
72835692,289,1,6
72854404,10816,324,6
72877300,11236,529,6
72900180,2401,225,6
72922008,64,361,6
72941776,100,225,6
72962572,784,100,6
72983364,625,4,6
73002096,14884,784,6
73024968,21316,2500,6
73048896,6084,1156,6
73071784,529,36,6
73091528,100,16,6
73111296,2304,4,6
73131068,484,81,6
73150832,1,0,6
73167456,121,225,6
73188252,361,1,6
73206972,2601,36,6
73227768,625,36,6
73247528,3364,4,6
73267300,5329,324,6
73289128,0,0,6
73305764,3136,484,6
73327604,324,144,6
73348424,1,64,6
73366092,1521,1,6
73385844,5329,196,6
73407700,6400,289,6
73429544,1225,49,6
73450336,1,0,6
73466968,144,4,6
73485704,256,49,6
73505452,2025,256,6
73527288,729,196,6
73548100,169,9,6
73566824,1,1,6
73583452,441,0,6
73602176,361,81,6
73621936,289,0,6
73640664,100,0,6
73659372,361,4,6
73678088,4225,225,6
73699928,9025,625,6
73721764,1521,625,6
73743624,324,1,6
73762344,441,16,6
73782104,361,0,6
73800824,169,289,6
73821612,400,144,6
73842424,529,4,6
73861128,2809,100,6
73882976,6724,225,6
73904820,400,100,6
73925604,16,9,6
73943296,1089,144,6
73965132,36,144,6
73984888,3025,81,6
74005704,5041,196,6
74027556,484,0,6
74046256,1,1,6
74062904,256,25,6
74082664,256,4,6
74101376,784,36,6
74121128,2209,256,6
74142976,2025,100,6
74164816,64,25,6
74183552,144,1,6
74202248,1681,1,6
74222008,2916,100,6
74243852,25,36,6
74262584,16,9,6
74280264,81,0,6
74297944,121,100,6
74318732,225,196,6
74339540,100,49,6
74359292,256,1,6
74378020,81,16,6
74396728,361,0,6
74415456,1444,121,6
74437304,9,225,6
74456016,529,4,6
74474736,0,121,6
74493456,324,4,6
74512180,36,36,6
74530896,361,25,6
74550656,64,0,6
74568340,225,36,6
74588100,729,4,6
74606824,729,0,6
74625532,1156,16,6
74646332,1089,81,6
74667140,121,9,6
74685868,961,121,6
74706660,9,16,6
74724312,169,49,6
74744104,1089,64,6
74764892,900,289,6
74785696,121,1,6
74804424,2401,9,6
74824172,4624,81,6
74844980,625,36,6
74864736,49,1,6
74882416,25,16,6
74901132,49,9,6
74918808,1444,16,6
74939620,324,64,6
74959392,196,0,6
74978096,81,4,6
74995780,4,81,6
75013460,529,81,6
75033216,576,25,6
75052976,64,9,6
75070664,25,0,6
75088340,81,9,6
75106020,1,16,6
75123684,256,196,6
75144504,0,9,6
75161140,1,0,6
75177780,324,4,6
75196500,1089,64,6
75217292,1089,169,6
75239144,0,4,6
75255760,169,100,6
75276580,1369,9,6
75296352,0,4,6
75312988,676,25,6
75332744,4,25,6
75350424,1,16,6
75368092,625,81,6
75387852,100,64,6
75407632,81,1,6
75425316,100,400,6
75446096,841,441,6
75466884,5776,49,6
75487684,5041,676,6
75509524,4900,625,6
75531380,2809,225,6
75553220,196,16,6
75572968,256,144,6
75593788,1849,1,6
75613540,3844,256,6
75635364,1521,324,6
75657220,841,36,6
75676976,9,36,6
75694644,1764,49,6
75715456,121,0,6
75734176,576,225,6
75754972,256,169,6
75775764,81,256,6
75795548,324,81,6
75815308,169,0,6
75834016,49,169,6
75853772,81,36,6
75872500,0,25,6
75890168,225,36,6
75909936,1024,1,6
75929696,2025,100,6
75951528,0,0,6
75968188,2601,324,6
75990012,441,144,6
76010828,1849,64,6
76031620,1444,25,6
76052412,9,0,6
76069048,3136,324,6
76090884,5329,1024,6
76113768,484,36,6
76133528,3721,289,6
76155380,3969,1,6
76175124,5929,100,6
76196992,1024,225,6
76218800,1156,81,6
76239620,100,9,6
76258344,576,0,6
76277044,13456,36,6
76298892,6400,784,6
76320736,400,1,6
76339444,1600,529,6
76361288,9025,529,6
76383128,484,1156,6
76404988,7921,49,6
76425780,3969,900,6
76447612,1024,1,6
76467376,1849,81,6
76488164,4,256,6
76506896,625,49,6
76526664,64,25,6
76545384,361,196,6
76566176,25,25,6
76584884,256,4,6
76603612,36,4,6
76621300,36,0,6
76638964,3844,25,6
76659772,7396,324,6
76681608,4356,361,6
76703452,3249,841,6
76725304,289,196,6
76746088,400,225,6
76766896,2304,4,6
76786628,6400,484,6
76808484,4356,225,6
76830324,1024,169,6
76852164,2209,676,6
76874028,529,81,6
76893768,961,49,6
76913516,8281,196,6
76935368,8464,841,6
76957216,841,81,6
76976960,64,0,6
76994644,6241,441,6
77016492,11025,1369,6
77040408,9,81,6
77058100,3969,324,6
77079944,1156,196,6
77101756,1369,144,6
77123612,2401,144,6
77145448,6400,441,6
77167276,32400,529,6
77190172,15625,841,6
77213044,2809,169,6
77234892,2809,576,6
77256740,100,9,6
77275464,9,16,6
77293120,2500,256,6
77314976,9604,81,6
77335792,1849,289,6
77357604,4096,9,6
77377380,289,324,6
77398172,6724,9,6
77417928,0,256,6
77436656,3364,36,6
77457456,2601,25,6
77478256,3249,49,6
77499040,900,441,6
77519836,13689,400,6
77542732,22801,2025,6
77566648,1089,1225,6
77589540,4,9,6
77606176,729,361,6
77626968,81,361,6
77646744,0,4,6
77663388,4,0,6
77680024,2601,16,6
77700812,7056,64,6
77721616,196,144,6
77742420,729,81,6
77762176,1,1,6
77778824,9,289,6
77797552,400,16,6
77817304,289,81,6
77837052,64,256,6
77856816,484,4,6
77875540,225,121,6
77896340,1296,529,6
77918172,1849,121,6
77940024,400,9,6
77958736,841,16,6
77978492,2809,36,6
77999288,1225,81,6
78020092,400,1,6
78038816,484,100,6
78059636,9,81,6
78077308,1,144,6
78096008,81,144,6
78115768,81,0,6
78133464,961,1,6
78152180,841,9,6
78170884,961,0,6
78189604,1849,36,6
78210416,841,64,6
78230172,900,169,6
78250968,16,1,6
78268656,81,16,6
78287384,225,36,6
78307136,2916,16,6
78327948,1225,225,6
78349788,256,0,6
78368504,361,36,6
78388272,729,1,6
78406980,64,9,6
78424648,1600,144,6
78446488,256,324,6
78467304,25,121,6
78487068,36,1,6
78504728,225,0,6
78523460,1764,144,6
78545304,1681,484,6
78567136,1156,256,6
78588992,1089,1,6
78608740,1849,25,6
78629528,1296,64,6
78650320,289,4,6
78669064,1089,16,6
78689860,81,4,6
78707536,36,100,6
78727304,1,9,6
78743948,16,4,6
78761612,16,25,6
78780336,576,1,6
78799060,81,16,6
78817772,1936,81,6
78838572,256,324,6
78859380,529,4,6
78878084,361,49,6
78897852,225,16,6
78917608,484,25,6
78937376,169,1,6
78956080,1156,64,6
78976892,2209,576,6
78998744,144,81,6
79018500,49,36,6
79037220,121,25,6
79056980,225,4,6
79075708,196,16,6
79095456,324,121,6
79116256,49,36,6
79134988,64,4,6
79152656,361,9,6
79171372,196,1,6
79190104,1,0,6
79206740,64,0,6
79224416,4,16,6
79242088,576,361,6
79262900,81,289,6
79282664,121,16,6
79302424,121,25,6
79322184,64,1,6
79339860,1369,36,6
79360648,4761,256,6
79382488,1764,49,6
79403308,49,4,6
79420992,289,196,6
79441772,49,121,6
79461544,2601,25,6
79482336,784,1,6
79501060,25,196,6
79520832,9,1,6
79537468,1,25,6
79555144,36,36,6
79573856,121,16,6
79593632,49,0,6
79611308,4,25,6
79628984,4,16,6
79646652,25,0,6
79664336,0,81,6
79682016,361,100,6
79702808,784,81,6
79722584,121,16,6
79742340,9,9,6
79758976,25,81,6
79777692,36,0,6
79795384,25,16,6
79814104,729,9,6
79832816,121,0,6
79851540,196,16,6
79871304,729,9,6
79890016,169,0,6
79908736,289,4,6
79927460,169,49,6
79947208,1,25,6
79964896,576,25,6
79984660,324,169,6
80005468,441,9,6
80024172,576,361,6
80044964,0,64,6
80062656,169,36,4
80082416,64,81,4
80101140,36,9,4
80118816,81,49,4
80137544,4,81,4
80155224,36,36,4
80173940,121,4,4
80192672,49,4,4
80210348,121,9,4
80229056,1,100,4
80247772,361,25,4
80267544,625,1,4
80286264,169,36,4
80306020,100,36,4
80325788,400,16,4
80345532,1764,36,4
80366336,2304,49,4
80387144,729,25,4
80406904,81,16,4
80425628,1,16,4
80443296,289,36,4
80463064,576,49,4
80482820,36,9,4
80500496,1444,169,4
80522336,1444,576,4
80544184,9,0,4
80560816,576,484,4
80581612,289,225,4
80602424,441,9,4
80621136,3136,400,4
80642972,1681,784,4
80664820,676,36,4
80684596,1225,1,4
80704336,900,100,4
80725136,121,1,4
80743856,324,0,4
80762576,49,36,4
80781292,81,1,4
80798988,361,0,4
80817704,256,225,4
80838496,49,49,4
80857228,121,16,4
80876976,49,16,4
80895700,25,4,4
80913364,0,0,4
80930024,4,196,4
80948728,49,169,4
80968496,49,0,4
80986180,1369,1,4
81005944,1156,9,4
81025688,64,0,4
81043372,1444,81,4
81064188,1225,16,4
81084976,576,36,4
81104744,9,49,4
81122420,441,9,4
81141148,441,1,4
81159860,576,16,4
81179612,1600,196,4
81201456,729,9,4
81220168,144,100,4
81240976,1296,49,4
81261792,529,169,4
81282600,289,36,4
81302348,196,4,4
81321052,529,64,4
81340816,961,25,4
81360580,484,81,4
81380332,169,9,4
81399064,361,1,4
81417772,1089,4,4
81437544,324,25,4
81457312,4,4,4
81473948,64,36,4
81492668,4,9,4
81509300,81,64,4
81528024,169,121,4
81548824,16,4,4
81566496,0,4,4
81583152,9,4,4
81599780,49,100,4
81619540,0,9,4
81636188,1,49,4
81653864,1,36,4
81671556,0,1,4
81688184,16,16,4
81706900,0,225,4
81725632,4,4,4
81742252,0,0,4
81758892,36,81,4
81777608,4,4,4
81794272,49,289,4
81814016,36,36,4
81832744,9,25,4
81850424,0,0,4
81867072,4,64,4
81884736,9,324,4
81903456,9,9,4
81920108,81,36,4
81938816,16,64,4
81957544,16,25,4
81976256,4,4,4
81992908,324,100,4
82013696,289,0,4
82032416,1,25,4
82050108,100,9,4
82068824,169,9,4
82087548,169,1,4
82106252,100,4,4
82124980,81,100,4
82144724,121,36,4
82164484,36,25,4
82183224,625,4,4
82201948,324,25,4
82221704,121,36,4
82241452,121,0,4
82260184,196,81,4
82279940,100,36,4
82299692,256,1,4
82318420,324,9,4
82337152,4,4,4
82353772,196,36,4
82373532,81,9,4
82391232,25,9,4
82408912,729,0,4
82427604,256,169,4
82448416,169,256,4
82469220,144,16,4
82488972,784,9,4
82507696,1681,4,4
82527460,64,9,4
82545140,256,100,4
82565932,441,144,4
82586744,400,0,4
82605460,169,0,4
82624172,100,9,4
82642892,484,36,4
82662664,441,144,4
82683472,225,1,4
82702172,576,36,4
82721948,121,1,4
82740672,1,4,4
82757304,16,36,4
82776028,144,9,4
82794744,676,36,4
82814508,169,9,4
82833220,16,1,4
82850912,169,49,4
82870676,841,64,4
82890424,289,1,4
82909124,196,0,4
82927860,484,0,4
82946580,225,16,4
82966332,289,25,4
82986100,64,64,4
83004828,225,1,4
83023532,576,4,4
83042244,64,256,4
83062028,9,25,4
83079700,25,36,4
83098416,324,1,4
83117140,16,16,4
83135860,1444,121,4
83157688,625,529,4
83178488,49,49,4
83197220,784,0,4
83215936,225,16,4
83235696,81,9,4
83253364,441,144,4
83274176,225,121,4
83294968,81,36,4
83313704,1,81,4
83331384,64,64,4
83350092,441,0,4
83368816,1444,100,4
83390676,0,81,4
83408340,196,9,4
83427068,144,0,4
83445780,625,25,4
83465544,676,0,4
83484264,225,36,4
83504016,1,0,4
83520660,196,81,4
83540408,784,4,4
83559140,196,36,4
83578900,529,1,4
83597632,729,16,4
83617380,121,4,4
83636100,361,9,4
83654828,324,0,4
83673540,1,1,4
83690176,36,64,4
83708892,49,16,4
83727632,169,4,4
83746336,324,100,4
83767136,16,144,4
83786908,9,4,4
83803552,36,121,4
83823292,81,100,4
83843052,676,16,4
83862812,361,25,4
83882576,64,1,4
83900252,0,16,4
83917940,0,4,4
83934584,0,9,4
83951224,4,81,4
83968904,900,441,4
83989704,961,361,4
84010488,121,64,4
84030256,144,0,4
84048992,225,144,4
84069792,169,169,4
84090584,4,0,4
84107208,9,36,4
84124912,169,0,4
84143620,256,1,4
84162344,196,9,4
84181060,81,64,4
84199784,121,9,4
84218492,625,4,4
84237216,361,64,4
84256984,49,9,4
84274664,400,1,4
84293380,576,1,4
84312100,144,25,4
84331860,25,9,4
84349528,64,0,4
84367220,121,16,4
84386980,361,1,4
84405696,484,36,4
84425464,4,36,4
84443132,49,9,4
84460840,49,81,4
84479528,81,64,4
84498260,64,36,4
84516988,529,1,4
84535700,324,49,4
84555460,16,36,4
84574168,16,49,4
84592904,100,25,4
84612664,0,1,4
84629304,196,16,4
84649072,324,4,4
84667784,36,81,4
84686500,16,25,4
84705216,16,0,4
84722896,9,0,4
84739540,16,36,4
84758256,36,144,4
84778012,484,49,4
84797780,400,81,4
84817552,1,1,4
84834168,484,25,4
84853940,256,36,4
84873704,1,9,4
84890340,64,9,4
84908012,36,4,4
84925708,4,49,4
84943388,4,16,4
84961064,49,1,4
84978740,16,16,4
84997468,4,4,4
85014092,16,169,4
85033852,121,36,4
85053616,121,4,4
85072340,9,1,4
85088984,9,121,4
85107696,256,36,4
85127460,289,9,4
85146184,81,49,4
85164888,400,64,4
85184664,9,9,4
85201308,0,0,4
85217932,36,36,4
85236652,256,121,4
85257464,64,64,4
85276196,9,64,4
85293856,25,1,4
85311544,49,4,4
85329220,4,100,4
85347940,16,16,4
85366660,100,36,4
85386420,100,16,4
85406180,64,49,4
85424896,576,16,4
85444648,2500,49,4
85465456,144,25,4
85485200,64,25,4
85503932,576,9,4
85522664,1,64,4
85540324,1521,9,4
85560080,5929,144,4
85581932,3600,36,4
85602728,4900,1,4
85622492,2209,289,4
85644332,36,81,4
85663060,576,4,4
85681772,0,36,4
85699456,900,0,4
85718180,36,289,4
85737932,900,64,4
85757704,121,4,4
85776420,25,121,4
85796176,81,16,4
85814892,1521,9,4
85834652,1444,49,4
85855448,784,169,4
85876260,900,144,4
85897060,169,49,4
85916824,36,9,4
85934508,576,49,4
85954244,1849,0,4
85974004,1089,4,4
85993784,81,1,4
86011460,9,49,4
86029140,4,0,4
86045788,9,81,4
86063456,36,64,4
86082168,225,64,4
86101936,100,36,4
86121708,81,4,4
86139380,25,0,4
86157056,0,0,4
86173692,1,81,4
86191376,256,81,4
86211144,400,49,4
86230904,100,25,4
86250664,676,16,4
86270420,841,9,4
86289140,64,4,4
86306812,169,81,4
86326580,1369,81,4
86347372,1156,36,4
86368168,144,25,4
86387936,64,9,4
86405624,0,1,4
86422260,1,36,4
86439928,121,36,4
86459708,121,4,4
86478424,225,4,4
86497140,144,64,4
86516900,529,25,4
86536656,225,1,4
86555372,289,1,4
86574104,289,16,4
86593880,16,16,4
86612576,9,64,4
86630252,196,81,4
86650020,361,49,4
86669776,0,36,4
86687460,4,1,4
86704088,81,9,4
86721784,64,144,4
86741540,144,36,4
86761300,196,4,4
86780020,16,4,4
86797716,4,25,4
86815376,289,64,4
86835124,361,169,4
86855944,0,1,4
86872572,196,100,4
86893380,0,1,4
86910024,441,196,4
86930816,64,64,4
86949540,64,16,4
86968256,36,1,4
86985940,0,25,4
87003620,1,49,4
87021296,484,225,4
87042100,100,324,4
87062904,1369,49,4
87083692,529,81,4
87103440,169,9,4
87122180,289,4,4
87140908,169,1,4
87159612,1,25,4
87177300,361,9,4
87196028,1296,25,4
87216828,4,0,4
87233452,256,289,4
87254256,625,100,4
87275052,2025,64,4
87295844,1296,25,4
87316656,484,25,4
87336412,169,36,4
87356180,196,1,4
87374892,64,64,4
87393616,2209,16,4
87414416,1521,225,4
87436248,100,4,4
87454980,4,81,4
87472672,1,9,4
87489296,225,100,4
87510100,121,36,4
87529868,0,0,4
87546504,64,1,4
87564168,676,100,4
87584984,625,196,4
87605784,4,9,4
87622420,196,196,4
87643212,169,225,4
87664032,169,0,4
87682728,361,121,4
87703524,324,169,4
87724336,1156,25,4
87745136,529,36,4
87764904,324,4,4
87783620,256,25,4
87803376,529,4,4
87822088,1936,64,4
87842900,576,256,4
87863704,25,1,4
87881380,676,100,4
87902172,484,144,4
87922976,4,49,4
87940648,400,36,4
87960416,289,49,4
87980184,64,36,4
87998900,441,4,4
88017624,0,25,4
88035292,1,0,4
88051944,196,225,4
88072748,225,256,4
88093536,25,1,4
88111224,625,144,4
88132012,441,100,4
88152820,100,0,4
88171540,484,144,4
88192332,4,169,4
88211060,25,100,4
88230808,25,25,4
88249540,64,16,4
88268260,25,9,4
88285936,169,4,4
88304652,729,100,4
88325460,400,36,4
88345212,0,0,4
88361868,16,0,4
88379540,49,49,4
88398260,1,49,4
88415928,100,0,4
88434652,49,0,4
88452344,64,0,4
88470016,36,36,4
88488732,64,36,4
88507464,400,1,4
88526184,169,1,4
88544896,784,16,4
88564640,1089,49,4
88585452,400,25,4
88605228,64,0,4
88622904,16,9,4
88640580,81,49,4
88659296,9,0,4
88675940,16,121,4
88695688,484,36,4
88715456,784,36,4
88735212,169,1,4
88753936,1521,169,4
88775784,100,64,4
88795548,196,16,4
88815288,289,0,4
88834016,196,0,4
88852752,1,9,4
88869388,0,25,4
88887048,25,25,4
88905792,441,4,4
88924504,196,49,4
88944256,16,9,4
88961948,0,9,4
88978572,289,64,4
88998332,81,144,4
89018100,1,4,4
89034728,9,1,4
89051384,256,4,4
89070108,1764,4,4
89089860,961,9,4
89108576,144,144,4
89129380,961,400,4
89150172,49,0,4
89167844,100,169,4
89188668,49,36,4
89207388,4,4,4
89224012,16,64,4
89242740,16,0,4
89260428,256,1,4
89279128,1089,64,4
89299936,784,441,4
89320740,169,64,4
89340500,2116,81,4
89361296,0,36,4
89378992,676,0,4
89397700,81,0,4
89415380,16,25,4
89434088,121,36,4
89453860,16,1,4
89471536,1156,0,4
89491296,169,49,4
89511068,36,16,4
89529784,0,49,4
89547452,196,25,4
89567204,625,49,4
89586980,4,25,4
89604652,361,144,4
89625456,1521,484,4
89647300,9,225,4
89666016,1156,16,4
89686820,144,100,4
89707628,16,9,4
89725300,4,36,4
89742980,4,121,4
89761688,169,16,4
89781464,900,0,4
89800180,729,9,4
89818888,36,9,4
89836580,961,4,4
89855296,256,9,4
89874012,1,81,4
89891704,361,9,4
89910420,4,16,4
89928100,576,9,4
89946816,36,16,4
89965528,484,1,4
89984272,676,25,4
90004020,49,9,4
90021692,900,9,4
90040416,3025,289,4
90062256,1849,256,2
90084108,36,1,2
90101792,144,16,2
90121544,1,16,2
90139208,121,0,2
90157944,324,0,2
90176668,841,0,2
90195388,1225,64,2
90216176,625,64,2
90235936,16,0,2
90253620,841,64,2
90273376,2809,49,2
90294168,441,9,2
90312908,9,4,2
90329528,25,36,2
90348260,100,16,2
90368020,289,0,2
90386748,225,1,2
90405456,121,16,2
90425212,0,100,2
90443944,361,0,2
90462652,144,9,2
90481376,121,0,2
90500088,324,4,2
90518828,4,1,2
90535468,100,0,2
90554180,256,36,2
90573936,841,9,2
90592676,289,9,2
90611380,16,9,2
90629064,1,1,2
90645700,81,16,2
90664416,49,16,2
90683128,100,144,2
90703948,256,1,2
90722660,9,1,2
90739292,576,16,2
90759060,361,49,2
90778816,900,16,2
90798564,4489,144,2
90820416,3249,361,2
90842272,361,4,2
90860972,484,1,2
90879688,1296,81,2
90900496,64,1,2
90918172,1849,324,2
90940024,1849,169,2
90961848,676,49,2
90981620,961,121,2
91002420,361,196,2
91023224,225,4,2
91041952,225,1,2
91060644,121,144,2
91081448,81,64,2
91100184,169,64,2
91119944,441,16,2
91139692,25,25,2
91158416,16,0,2
91176096,289,9,2
91194804,441,36,2
91214572,196,64,2
91234352,25,0,2
91252032,9,25,2
91269700,1,121,2
91288420,64,36,2
91307152,49,0,2
91324828,36,1,2
91342496,225,16,2
91362256,196,64,2
91382024,4,4,2
91398664,9,9,2
91415292,0,9,2
91431924,4,64,2
91449624,0,100,2
91468328,64,16,2
91487052,64,0,2
91504736,4,0,2
91521376,9,25,2
91539048,16,81,2
91557780,16,25,2
91576508,9,0,2
91593144,1,9,2
91609780,25,0,2
91627448,49,1,2
91645152,64,1,2
91662828,1,49,2
91680500,4,4,2
91697136,1,36,2
91714820,9,16,2
91732512,1,16,2
91750180,144,0,2
91768900,81,100,2
91788664,16,25,2
91807380,144,0,2
91826084,49,0,2
91843788,1,0,2
91860412,256,64,2
91880180,1089,121,2
91902020,324,49,2
91921784,0,0,2
91938420,9,25,2
91956100,9,4,2
91972736,1,9,2
91989376,81,0,2
92007060,169,25,2
92026812,25,0,2
92044496,0,4,2
92061136,1,64,2
92078824,1,36,2
92096492,0,0,2
92113136,64,0,2
92130808,49,25,2
92149544,0,4,2
92166196,1,36,2
92183868,1,25,2
92201544,9,64,2
92219216,16,1,2
92236904,169,81,2
92256664,121,36,2
92276424,25,9,2
92294092,1,9,2
92310736,1,36,2
92328408,9,16,2
92346100,1,16,2
92363764,49,25,2
92382508,0,9,2
92399148,36,49,2
92417864,0,81,2
92435552,36,4,2
92453212,25,9,2
92470892,0,9,2
92487536,4,9,2
92504188,81,1,2
92521868,4,0,2
92538508,16,36,2
92557212,4,64,2
92574900,64,1,2
92592576,16,0,2
92610244,9,25,2
92627932,1,4,2
92644588,9,25,2
92662256,1,9,2
92678900,0,64,2
92696584,1,100,2
92715300,16,9,2
92732976,49,1,2
92750652,16,36,2
92769384,4,0,2
92786020,4,36,2
92803704,0,25,2
92821380,121,0,2
92840104,289,36,2
92859860,441,25,2
92879616,144,16,2
92899392,0,1,2
92916020,25,36,2
92934728,4,16,2
92952424,49,1,2
92970100,4,25,2
92987776,9,0,2
93004416,9,49,2
93022104,25,1,2
93039788,36,4,2
93057456,81,16,2
93076180,81,81,2
93094896,9,0,2
93111536,49,25,2
93130272,144,16,2
93150020,100,4,2
93168740,16,1,2
93186420,169,4,2
93205140,49,64,2
93223852,1,9,2
93240512,16,1,2
93258176,9,81,2
93275856,4,49,2
93293536,1,9,2
93310180,9,1,2
93326812,16,49,2
93345536,25,81,2
93364264,9,1,2
93380908,4,16,2
93398572,49,49,2
93417288,225,0,2
93436024,576,25,2
93455788,121,4,2
93474508,25,16,2
93493216,49,0,2
93510904,0,1,2
93527540,1,25,2
93545216,16,36,2
93563936,36,1,2
93581624,169,4,2
93600340,256,16,2
93620100,81,16,2
93638832,9,1,2
93655472,9,9,2
93672104,36,49,2
93690824,9,1,2
93707468,1,25,2
93725128,49,9,2
93742820,16,25,2
93761532,1,9,2
93778184,4,9,2
93794812,81,0,2
93812492,16,25,2
93831224,4,9,2
93847860,169,4,2
93866568,676,64,2
93886336,100,64,2
93906104,4,0,2
93922740,25,36,2
93941456,0,25,2
93959120,0,4,2
93975784,9,64,2
93993456,0,100,2
94012180,100,4,2
94030904,64,9,2
94048580,4,1,2
94065212,9,49,2
94082900,25,100,2
94102660,49,4,2
94120344,49,4,2
94138012,16,4,2
94155688,4,25,2
94173388,25,81,2
94192092,1,1,2
94208732,9,4,2
94225372,4,64,2
94243064,4,100,2
94261784,36,4,2
94279460,121,4,2
94298180,144,9,2
94316896,144,0,2
94335612,36,9,2
94353308,0,16,2
94370984,1,4,2
94387624,0,9,2
94404252,9,64,2
94421932,49,144,2
94441708,36,36,2
94460416,1,4,2
94477056,25,0,2
94494740,49,9,2
94512428,16,64,2
94531136,25,0,2
94548820,9,16,2
94566508,36,4,2
94584180,36,36,2
94602900,9,25,2
94620568,49,1,2
94638260,121,1,2
94656980,25,0,2
94674656,9,16,2
94692336,4,49,2
94710028,0,4,2
94726668,16,25,2
94745376,25,9,2
94763072,4,1,2
94779720,1,9,2
94796344,25,1,2
94814020,196,36,2
94833788,100,4,2
94852508,16,4,2
94870184,1,9,2
94886820,1,9,2
94903464,0,64,2
94921140,49,100,2
94940896,121,0,2
94959612,4,4,2
94976260,1,4,2
94992900,9,49,2
95010576,4,81,2
95028268,0,36,2
95045948,1,1,2
95062576,0,64,2
95080256,0,100,2
95098980,36,9,2
95116668,49,0,2
95134328,0,25,2
95152020,9,1,2
95168668,36,49,2
95187380,64,36,2
95206108,16,4,2
95223772,0,9,2
95240428,25,36,2
95259140,81,0,2
95276812,25,9,2
95294496,1,16,2
95312176,4,4,2
95328812,4,81,2
95346500,49,16,2
95365224,81,1,2
95382900,100,64,2
95402656,4,36,2
95420328,121,25,2
95440104,4,9,2
95456732,484,16,2
95476496,64,25,2
95495224,16,0,2
95512912,0,36,2
95530572,4,49,2
95548256,0,36,2
95565944,9,36,2
95583632,4,9,2
95600268,16,1,2
95617940,144,9,2
95636668,36,0,2
95654344,25,4,2
95672020,4,81,2
95689684,1,121,2
95708428,4,1,2
95725056,9,0,2
95741696,4,64,2
95759384,0,100,2
95778100,16,1,2
95795780,16,4,2
95813460,9,16,2
95831148,144,4,2
95849864,289,9,2
95868572,100,25,2
95888324,49,9,2
95906024,25,1,2
95923696,1,0,2
95940328,9,16,2
95958012,25,100,2
95977776,25,16,2
95996504,64,1,2
96014184,49,4,2
96031868,9,36,2
96049556,4,4,2
96066176,0,49,2
96083860,1,16,2
96101540,4,49,2
96119220,0,25,2
96136912,4,25,2
96154572,1,16,2
96172272,4,9,2
96188908,9,0,2
96205548,1,4,2
96222168,1,1,2
96238816,1,0,2
96255452,9,16,2
96273128,64,9,2
96290808,144,121,2
96311620,196,100,2
96332408,25,1,2
96350092,49,49,2
96368820,36,81,2
96387532,49,4,2
96405228,81,9,2
96422892,36,4,2
96440580,0,64,2
96458272,25,9,2
96475948,4,36,2
96493628,9,9,2
96510260,144,49,2
96530016,196,16,2
96549780,144,9,2
96568500,64,0,2
96586180,49,25,2
96604892,25,9,2
96622568,0,1,2
96639224,25,49,2
96657948,49,36,2
96676656,1,9,2
96693300,36,25,2
96712028,289,0,2
96730740,100,49,2
96750492,0,9,2
96767140,25,0,2
96784816,81,4,2
96802504,49,1,2
96820160,81,16,2
96838900,16,0,2
96856580,4,36,2
96874260,16,4,2
96891948,1,1,2
96908584,16,49,2
96927308,4,25,2
96944988,9,4,2
96961624,1,1,2
96978260,9,64,2
96995940,25,64,2
97014664,36,0,2
97032340,0,4,2
97048976,49,49,2
97067696,16,49,2
97086416,25,0,2
97104104,81,0,2
97121780,36,0,2
97139468,9,9,2
97156100,64,4,2
97173788,49,9,2
97191472,1,1,2
97208104,81,25,2
97226828,0,16,2
97244504,36,1,2
97262176,0,4,2
97278820,0,25,2
97296496,4,0,2
97313144,9,36,2
97330816,9,9,2
97347452,16,81,2
97366180,64,100,2
97385940,9,0,2
97402572,9,1,2
97419204,1,0,2
97435860,36,1,2
97453540,9,25,2
97471224,0,1,2
97487860,25,64,2
97506588,81,49,2
97525304,9,4,2
97541944,36,4,2
97559628,64,1,2
97577300,169,49,2
97597048,16,36,2
97615776,9,1,2
97632436,9,9,2
97649072,169,1,2
97667776,121,9,2
97686496,225,25,2
97706268,100,4,2
97724988,1,25,2
97742660,16,1,2
97760340,64,4,2
97778024,1,25,2
97795700,1,9,2
97812336,0,36,2
97830020,4,9,2
97846672,49,9,2
97864340,16,16,2
97883052,9,1,2
97899708,1,1,2
97916336,196,16,2
97936096,169,0,2
97954824,9,4,2
97971464,1,16,2
97989152,1,4,2
98005780,36,9,2
98023460,9,64,2
98041152,4,16,2
98058828,1,1,2
98075452,64,25,2
98094180,4,36,2
98111864,289,1,2
98130580,121,16,2
98150344,36,4,2
98168020,169,9,2
98186736,121,49,2
98206496,81,16,2
98225216,16,4,2
98242904,9,36,2
98260572,36,4,2
98278252,49,1,2
98295936,49,9,2
98313624,49,36,2
98332348,16,1,2
98350008,25,9,2
98367696,4,1,2
98384336,81,36,2
98403056,289,49,2
98422824,361,16,2
98442580,121,25,2
98462340,9,1,2
98478980,1,9,2
98495616,0,16,2
98513316,49,0,2
98530976,121,36,2
98550740,4,9,2
98567384,36,9,2
98585060,0,49,2
98602740,4,16,2
98620420,1,0,2
98637064,4,1,2
98653700,49,16,2
98672416,256,16,2
98692180,81,9,2
98709860,0,0,2
98726500,1,4,2
98743132,9,4,2
98759780,0,16,2
98777460,4,4,2
98794104,1,4,2
98810740,1,16,2
98828424,49,9,2
98846104,121,4,2
98864828,4,36,2
98882500,1,4,2
98899140,16,1,2
98916812,9,4,2
98933456,1,25,2
98951128,9,25,2
98968824,49,25,2
98987544,49,9,2
99005220,144,0,2
99023948,81,1,2
99041624,36,9,2
99059288,25,0,2
99076980,16,1,2
99094656,36,4,2
99112348,0,4,2
99128980,81,16,2
99147692,36,1,2
99165384,0,1,2
99182028,9,1,2
99198660,16,16,2
99217368,100,9,2
99236104,36,4,2
99253776,9,9,2
99270420,25,25,2
99289140,100,16,2
99308904,4,1,2
99325536,9,0,2
99342172,49,16,2
99360904,196,9,2
99379616,289,16,2
99399372,100,36,2
99419132,36,1,2
99436832,16,1,2
99454504,0,4,2
99471136,1,9,2
99487776,4,16,2
99505464,4,4,2
99522108,16,49,2
99540820,4,36,2
99558504,4,0,2
99575132,36,0,2
99592812,1,9,2
99609464,25,9,2
99627140,1,0,2
99643788,1,0,2
99660420,49,0,2
99678100,25,1,2
99695792,49,9,2
99713464,25,25,2
99732180,16,0,2
99749860,49,1,2
99767548,225,0,2
99786264,169,9,2
99804980,0,4,2
99821628,1,1,2
99838260,4,16,2
99855940,25,4,2
99873616,100,1,2
99892344,25,1,2
99910020,36,1,2
99927692,36,36,2
99946408,25,16,2
99965152,0,4,2
99981780,36,16,2
100000500,16,16,2
100020260,4,0,2
100037936,0,16,2
100056660,9,36,7
100075388,121,1,7
100095140,169,9,7
100114896,64,9,7
100133616,64,0,7
100152344,25,1,7
100171060,4,25,7
100189776,0,9,7
100207460,49,25,7
100227236,4,16,7
100245932,49,0,7
100264660,1,1,7
100282332,9,16,7
100301068,1,0,7
100318748,1,9,7
100336428,0,4,7
100354100,1,4,7
100371780,4,0,7
100389452,4,1,7
100407140,1,25,7
100425860,0,9,7
100443536,9,0,7
100461224,25,1,7
100479928,25,0,7
100498668,9,4,7
100516336,196,16,7
100537140,36,49,7
100556908,36,0,7
100575628,0,1,7
100593304,64,1,7
100612008,16,1,7
100630752,25,4,7
100649460,16,9,7
100668176,1,0,7
100685868,0,9,7
100703544,25,36,7
100723308,16,9,7
100742016,25,1,7
100760736,0,1,7
100778420,9,4,7
100796096,0,36,7
100814812,1,4,7
100832504,25,0,7
100851236,49,1,7
100869944,4,1,7
100887616,9,0,7
100905296,4,64,7
100924024,4,25,7
100942744,9,0,7
100960428,16,0,7
100979144,4,16,7
100997856,121,25,7
101018656,196,36,7
101039464,1,36,7
101058188,16,0,7
101076892,36,1,7
101095628,100,0,7
101115376,64,9,7
101134088,64,9,7
101152820,36,0,7
101171540,1,4,7
101189216,1,1,7
101206896,4,0,7
101224596,4,49,7
101243308,0,49,7
101262012,0,1,7
101279688,0,4,7
101297376,1,0,7
101315060,1,25,7
101333772,0,1,7
101351464,1,16,7
101370180,0,16,7
101388900,1,0,7
101406568,4,1,7
101424260,16,64,7
101444020,81,49,7
101463784,100,4,7
101483552,9,0,7
101501220,25,4,7
101519932,36,4,7
101538656,0,1,7
101556352,36,0,7
101575064,49,4,7
101593788,9,0,7
101611448,9,0,7
101629140,4,4,7
101646808,0,49,7
101665548,1,49,7
101684268,49,4,7
101702980,64,36,7
101722736,25,4,7
101741452,9,4,7
101759144,49,4,7
101777868,81,1,7
101796584,0,1,7
101814252,16,16,7
101834020,36,0,7
101852740,16,0,7
101871464,1,0,7
101889132,0,0,7
101906828,0,16,7
101925544,36,9,7
101944252,100,16,7
101965068,9,36,7
101983780,0,25,7
102002504,0,4,7
102020176,25,0,7
102038900,16,1,7
102057620,1,0,7
102075292,1,1,7
102092980,0,36,7
102111704,1,9,7
102129368,0,0,7
102147052,1,16,7
102165780,0,0,7
102183468,0,16,7
102202180,1,0,7
102219860,0,1,7
102237540,16,0,7
102256264,4,4,7
102273944,1,1,7
102291628,4,16,7
102310332,0,9,7
102328016,1,1,7
102345688,0,25,7
102364420,0,9,7
102382116,1,25,7
102400820,0,9,7
102418508,1,0,7
102436180,0,9,7
102453856,0,1,7
102471532,0,25,7
102490264,0,9,7
102507940,1,0,7
102525612,0,9,7
102543284,0,1,7
102560988,0,25,7
102579700,1,9,7
102597380,1,0,7
102615056,0,25,7
102633784,0,16,7
102652504,1,1,7
102670176,0,4,7
102687860,0,1,7
102705540,1,4,7
102723212,0,0,7
102740888,0,64,7
102759620,0,4,7
102777300,0,0,7
102794980,0,16,7
102813708,0,4,7
102831392,0,25,7
102850096,1,4,7
102867772,1,1,7
102885460,4,9,7
102903144,9,4,7
102920816,0,81,7
102939540,4,9,7
102957224,4,0,7
102974896,0,16,7
102993616,0,0,7
103011292,0,25,7
103030024,0,0,7
103047708,1,4,7
103065372,0,4,7
103083056,0,9,7
103100740,0,64,7
103119460,1,4,7
103137140,1,0,7
103154824,0,1,7
103172504,0,4,7
103190184,0,49,7
103208896,1,4,7
103226580,4,0,7
103244260,0,9,7
103261940,0,1,7
103279620,0,49,7
103298348,0,16,7
103317048,1,0,7
103334732,4,0,7
103352432,1,9,7
103370112,1,49,7
103388824,4,1,7
103406492,1,4,7
103424180,0,4,7
103441848,0,9,7
103459536,0,64,7
103478256,1,9,7
103495948,4,0,7
103513624,0,9,7
103531296,0,0,7
103548992,0,49,7
103567704,0,16,7
103586412,1,0,7
103604092,1,1,7
103621780,1,16,7
103640488,0,16,7
103659220,0,25,7
103677936,0,16,7
103696660,0,0,7
103714344,0,0,7
103732008,0,25,7
103750740,1,16,7
103769476,1,4,7
103787144,0,0,7
103804812,0,1,7
103822500,0,9,7
103840176,0,1,7
103857864,0,36,7
103876576,0,4,7
103894268,1,1,7
103911928,0,25,7
103930664,1,4,7
103948352,0,16,7
103967064,0,9,7
103984740,1,0,7
104002412,1,4,7
104020096,0,9,7
104037780,0,64,7
104056500,1,16,7
104075212,4,0,7
104092900,0,1,7
104110584,0,9,7
104128272,0,36,7
104146980,1,0,7
104164656,1,0,7
104182332,1,4,7
104200020,1,4,7
104217696,0,49,7
104236432,0,1,7
104254104,1,1,7
104271772,0,16,7
104290504,0,0,7
104308188,0,4,7
104325856,0,4,7
104343528,0,4,7
104361220,0,9,7
104378900,0,1,7
104396576,0,64,7
104415308,0,16,7
104434024,1,0,7
104451688,0,1,7
104469380,0,9,7
104487060,0,49,7
104505776,1,4,7
104523452,9,1,7
104541124,4,9,7
104558820,0,4,7
104576500,0,64,7
104595216,1,16,7
104613940,4,0,7
104631620,0,1,7
104649292,0,16,7
104668020,0,16,7
104686748,1,4,7
104704420,0,0,7
104722100,1,0,7
104739768,0,9,7
104757468,1,0,7
104775144,1,36,7
104793856,0,4,7
104811544,1,0,7
104829216,0,16,7
104847936,0,9,7
104865624,0,25,7
104884344,0,9,7
104902020,1,0,7
104919692,0,9,7
104937372,0,1,7
104955068,0,64,7
104973784,0,9,7
104991460,1,0,7
105009132,0,16,7
105027872,0,1,7
105045548,0,25,7
105064264,0,4,7
105081940,0,1,7
105099608,0,4,7
105117288,1,4,7
105134980,0,49,7
105153708,1,4,7
105171384,0,0,7
105189060,0,9,7
105206732,0,0,7
105224420,0,36,7
105243132,0,9,7
105260812,1,0,7
105278500,0,9,7
105296180,0,1,7
105313860,0,49,7
105332580,0,9,7
105350260,1,0,7
105367936,0,16,7
105386664,0,4,7
105404332,0,36,7
105423064,0,9,7
105440736,0,1,7
105458424,0,16,7
105477140,0,0,7
105494816,0,9,7
105512500,0,1,7
105530180,0,9,7
105547872,1,16,7
105566588,0,0,7
105584268,0,16,7
105602976,0,0,7
105620672,4,1,7
105638336,0,4,7
105656020,1,9,7
105673688,0,64,7
105692420,0,9,7
105710108,4,0,7
105727780,0,4,7
105745468,0,4,7
105763140,0,49,7
105781856,0,9,7
105799528,4,0,7
105817220,0,9,7
105834900,0,1,7
105852580,0,49,7
105871296,0,9,7
105888992,1,0,7
105906660,0,9,7
105924344,0,1,7
105942024,1,25,7
105960744,0,4,7
105978412,1,0,7
105996092,0,9,7
106013788,1,1,7
106031468,0,25,7
106050180,1,9,7
106067860,1,0,7
106085540,0,25,7
106104260,0,16,7
106122988,1,4,7
106140660,0,1,7
106158340,0,4,7
106176020,1,4,7
106193688,0,0,7
106211388,0,49,7
106230100,0,9,7
106247780,1,0,7
106265460,0,16,7
106284192,0,4,7
106301860,0,25,7
106320572,0,4,7
106338248,0,1,7
106355944,0,9,7
106373612,0,1,7
106391292,0,64,7
106410028,1,9,7
106427712,1,0,7
106445376,0,9,7
106463056,0,0,7
106480744,0,16,7
106499464,0,4,7
106517132,1,0,7
106534812,0,9,7
106552508,1,0,7
106570176,0,49,7
106588900,0,9,7
106606572,1,0,7
106624264,1,16,7
106642984,0,4,7
106660660,0,25,7
106679380,0,9,7
106697056,1,0,7
106714728,0,4,7
106732416,1,4,7
106750104,0,64,7
106768820,0,9,7
106786500,1,0,7
106804172,0,9,7
106821868,0,0,7
106839544,0,25,7
106858252,0,4,7
106875940,1,0,7
106893620,0,9,7
106911300,0,1,7
106928980,0,25,7
106947700,0,4,7
106965388,1,0,7
106983056,0,25,7
107001776,0,16,7
107020508,1,4,7
107038184,0,0,7
107055852,0,1,7
107073524,0,4,7
107091220,0,1,7
107108908,0,49,7
107127620,0,4,7
107145308,1,0,7
107162988,0,9,7
107180660,0,1,7
107198344,0,9,7
107216020,0,9,7
107233696,4,9,7
107251380,1,4,7
107269052,0,64,7
107287788,0,9,7
107305452,4,0,7
107323140,0,1,7
107340824,0,0,7
107358504,0,36,7
107377212,0,9,7
107394888,1,0,7
107412576,1,9,7
107430260,0,0,7
107447928,0,25,7
107466656,0,4,7
107484336,0,0,7
107502012,0,16,7
107520736,1,4,7
107538408,0,25,7
107557144,0,4,7
107574816,4,0,7
107592492,0,4,7
107610180,0,4,7
107627864,0,64,7
107646580,1,9,7
107664264,1,0,7
107681944,0,1,7
107699628,1,0,7
107717304,1,25,7
107736008,0,1,7
107753696,1,0,7
107771376,0,4,7
107789052,0,0,7
107806752,0,25,7
107825468,1,4,7
107843140,4,1,7
107860816,1,36,7
107879544,0,4,7
107897228,1,36,7
107915932,1,9,7
107933604,1,0,7
107951300,0,9,7
107968972,0,1,7
107986660,0,49,7
108005372,1,4,7
108023068,4,0,7
108040740,0,16,7
108059456,0,0,7
108077140,0,25,7
108095864,0,1,7
108113532,1,1,7
108131212,0,4,7
108148908,1,9,7
108166576,0,81,7
108185300,1,9,7
108202972,1,0,7
108220664,0,1,7
108238336,0,4,7
108256024,0,49,7
108274744,0,9,7
108292416,1,0,7
108310092,0,9,7
108327780,1,4,7
108345468,0,49,7
108364192,0,4,7
108381860,1,0,7
108399524,0,16,7
108418268,0,4,7
108435944,0,25,7
108454668,0,1,7
108472336,1,4,7
108490020,0,9,7
108507688,0,1,7
108525368,1,49,7
108544108,1,4,7
108561792,1,0,7
108579456,0,9,7
108597132,0,0,7
108614824,0,25,7
108633532,0,4,7
108651212,1,1,7
108668884,0,16,7
108687616,0,0,7
108705308,0,25,7
108724016,0,0,7
108741708,1,0,7
108759384,0,1,7
108777052,0,4,7
108794732,0,64,7
108813460,1,4,7
108831140,1,1,7
108848808,0,9,7
108866484,1,1,7
108884188,0,49,7
108902900,0,4,7
108920580,1,1,7
108938264,0,4,7
108955940,0,0,7
108973620,0,25,7
108992336,0,9,7
109010016,4,0,7
109027700,0,4,7
109045372,0,0,7
109063056,0,36,7
109081780,1,9,7
109099460,1,0,7
109117140,0,25,7
109135848,0,4,7
109153544,0,36,7
109172272,0,4,7
109189928,0,1,7
109207620,0,9,7
109225300,1,4,7
109242976,0,64,7
109261700,1,9,7
109279388,1,0,7
109297060,0,16,7
109315776,0,4,7
109333464,0,16,7
109352188,0,1,7
109369852,0,0,7
109387532,0,4,7
109405216,0,4,7
109422896,0,64,7
109441620,1,4,7
109459300,1,0,7
109476988,0,4,7
109494664,0,1,7
109512340,1,49,7
109531048,0,9,7
109548740,1,0,7
109566420,0,16,7
109585128,0,0,7
109602804,0,9,7
109620500,0,1,7
109638184,0,0,7
109655856,0,16,7
109674584,0,1,7
109692260,1,25,7
109710976,1,4,7
109728648,0,0,7
109746340,0,1,7
109764012,0,4,7
109781696,0,64,7
109800416,0,9,7
109818108,1,0,7
109835772,0,16,7
109854508,1,4,7
109872184,0,9,7
109889864,0,0,7
109907544,1,1,7
109925216,0,9,7
109942896,1,0,7
109960588,0,49,7
109979300,0,9,7
109996972,1,0,7
110014656,0,16,7
110033376,0,9,7
110051064,1,25,7
110069784,0,4,1
110087460,1,0,1
110105132,0,4,1
110122820,1,1,1
110140504,0,64,1
110159228,0,9,1
110176904,1,0,1
110194576,0,9,1
110212264,1,0,1
110229932,0,36,1
110248652,0,9,1
110266324,4,0,1
110284020,0,9,1
110301692,0,1,1
110319380,1,36,1
110338108,0,4,1
110355788,1,0,1
110373456,1,16,1
110392184,0,1,1
110409872,1,36,1
110428584,0,9,1
110446248,1,0,1
110463924,0,9,1
110481620,0,1,1
110499300,0,49,1
110518020,0,9,1
110535708,1,0,1
110553380,0,16,1
110572104,0,1,1
110589780,1,36,1
110608500,0,1,1
110626180,4,1,1
110643848,0,16,1
110662564,0,0,1
110680256,1,4,1
110697940,0,4,1
110715616,1,4,1
110733292,0,9,1
110750980,0,0,1
110768664,0,36,1
110787380,1,4,1
110805064,16,1,1
110823784,0,1,1
110841448,0,25,1
110860180,0,25,1
110878912,1,16,1
110897620,0,9,1
110915304,0,0,1
110932972,0,16,1
110951704,0,0,1
110969388,0,9,1
110987056,0,4,1
111004740,0,9,1
111022424,1,9,1
111040092,0,4,1
111057776,0,64,1
111076512,0,9,1
111094180,4,0,1
111111852,0,9,1
111129528,1,0,1
111147220,0,25,1
111165932,0,4,1
111183612,4,0,1
111201304,0,25,1
111220028,1,4,1
111237708,0,36,1
111256420,1,9,1
111274100,1,0,1
111291780,0,9,1
111309464,1,1,1
111327140,0,49,1
111345860,1,4,1
111363532,0,0,1
111381208,1,9,1
111398884,4,0,1
111416576,16,36,1
111436332,9,16,1
111455052,4,0,1
111472748,1,1,1
111490420,1,16,1
111509136,0,4,1
111526816,0,49,1
111545544,0,25,1
111564256,0,1,1
111581932,0,0,1
111599604,1,16,1
111618340,0,4,1
111636020,0,16,1
111654736,1,16,1
111673460,1,0,1
111691148,1,1,1
111708820,1,9,1
111726500,0,64,1
111745224,4,4,1
111762892,1,1,1
111780568,0,4,1
111798244,0,4,1
111815944,0,49,1
111834672,4,4,1
111852340,1,4,1
111870020,0,25,1
111888748,0,0,1
111906428,0,16,1
111925136,0,0,1
111942820,0,1,1
111960488,0,4,1
111978176,1,4,1
111995844,0,49,1
112014588,1,4,1
112032252,4,1,1
112049940,0,4,1
112067624,1,9,1
112085304,0,49,1
112104016,0,4,1
112121692,0,1,1
112139380,0,4,1
112157060,0,4,1
112174740,0,49,1
112193452,1,4,1
112211148,1,0,1
112228816,0,16,1
112247536,0,1,1
112265212,0,25,1
112283944,0,1,1
112301608,0,1,1
112319296,1,1,1
112336980,0,16,1
112355700,0,25,1
112374424,0,9,1
112392092,0,9,1
112409780,1,0,1
112427456,0,25,1
112446176,0,16,1
112464908,1,4,1
112482584,0,1,1
112500260,0,4,1
112517940,0,9,1
112535620,0,0,1
112553312,0,36,1
112572020,0,4,1
112589704,1,0,1
112607392,0,9,1
112625064,0,4,1
112642740,0,9,1
112660404,0,9,1
112678100,0,4,1
112695768,0,4,1
112713460,0,49,1
112732188,1,9,1
112749868,1,0,1
112767540,0,4,1
112785224,0,1,1
112802900,0,25,1
112821624,0,4,1
112839288,0,0,1
112856972,0,9,1
112874656,0,0,1
112892348,1,36,1
112911060,0,4,1
112928736,1,0,1
112946428,0,16,1
112965152,0,4,1
112982824,0,36,1
113001544,0,9,1
113019216,1,0,1
113036888,0,4,1
113054580,1,1,1
113072260,0,49,1
113090988,0,4,1
113108652,1,0,1
113126324,0,9,1
113144020,0,0,1
113161704,1,25,1
113180412,0,4,1
113198100,0,0,1
113215780,0,4,1
113233452,0,0,1
113251140,0,36,1
113269868,0,4,1
113287544,1,0,1
113305216,1,16,1
113323936,0,9,1
113341624,0,25,1
113360336,1,9,1
113378008,0,0,1
113395684,0,4,1
113413376,0,0,1
113431064,1,36,1
113449780,0,9,1
113467468,0,0,1
113485136,0,16,1
113503856,0,0,1
113521544,1,25,1
113540264,0,4,1
113557928,1,0,1
113575612,0,1,1
113593284,0,4,1
113610988,0,64,1
113629700,1,9,1
113647368,4,0,1
113665068,1,9,1
113682744,0,0,1
113700424,0,36,1
113719144,0,9,1
113736816,0,0,1
113754500,0,4,1
113772180,1,1,1
113789852,0,64,1
113808588,1,9,1
113826256,1,0,1
113843940,0,9,1
113861616,0,1,1
113879312,0,16,1
113898024,0,4,1
113915700,1,0,1
113933380,0,9,1
113951060,0,4,1
113968744,0,9,1
113986420,0,9,1
114004112,4,9,1
114021784,0,0,1
114039460,0,25,1
114058168,0,4,1
114075856,4,0,1
114093528,0,16,1
114112248,0,0,1
114129948,0,25,1
114148672,0,1,1
114166340,1,0,1
114184020,0,4,1
114201704,1,4,1
114219384,0,49,1
114238092,0,4,1
114255772,1,1,1
114273464,0,4,1
114291140,0,1,1
114308820,1,49,1
114327524,0,9,1
114345220,0,0,1
114362908,1,9,1
114380584,1,4,1
114398272,4,64,1
114416980,25,16,1
114436732,49,1,1
114455456,25,1,1
114474184,25,0,1
114492904,1,4,1
114510576,4,4,1
114528252,0,64,1
114546988,4,9,1
114564660,4,0,1
114582336,0,25,1
114601060,0,0,1
114618740,9,16,1
114637456,4,0,1
114655136,0,1,1
114672820,0,0,1
114690504,0,4,1
114708176,0,36,1
114726896,9,4,1
114744580,4,1,1
114762268,0,9,1
114779936,0,1,1
114797632,0,49,1
114816344,1,9,1
114834012,1,0,1
114851692,1,4,1
114869388,0,1,1
114887072,0,49,1
114905780,1,9,1
114923444,1,0,1
114941140,0,16,1
114959868,1,1,1
114977544,0,25,1
114996264,0,4,1
115013940,0,1,1
115031608,4,0,1
115049288,4,9,1
115066976,0,49,1
115085700,0,9,1
115103372,1,0,1
115121056,0,9,1
115138744,1,0,1
115156416,0,16,1
115175132,4,0,1
115192816,4,0,1
115210508,1,1,1
115228188,9,0,1
115245860,1,36,1
115264580,0,9,1
115282260,1,0,1
115299932,0,16,1
115318652,0,4,1
115336340,0,16,1
115355052,0,4,1
115372736,1,0,1
115390400,0,4,1
115408100,1,1,1
115425768,0,36,1
115444488,0,9,1
115462176,1,4,1
115479860,0,25,1
115498584,4,0,1
115516268,0,9,1
115533956,0,0,1
115551620,1,1,1
115569292,0,4,1
115586972,0,0,1
115604664,1,36,1
115623376,0,9,1
115641060,1,0,1
115658724,0,16,1
115677472,4,1,1
115695148,1,25,1
115713852,0,4,1
115731544,1,9,1
115749224,0,25,1
115767932,0,0,1
115785608,0,9,1
115803300,1,1,1
115820980,1,9,1
115838660,0,16,1
115857372,0,1,1
115875064,4,16,1
115893780,0,1,1
115911452,0,0,1
115929136,1,0,1
115946816,1,1,1
115964488,0,36,1
115983208,0,9,1
116000900,1,0,1
116018580,0,4,1
116036264,0,0,1
116053940,0,36,1
116072660,0,9,1
116090340,1,0,1
116108012,0,1,1
116125684,0,0,1
116143380,0,25,1
116162100,0,9,1
116179780,1,0,1
116197464,0,9,1
116215148,0,4,1
116232828,1,9,1
116250492,0,4,1
116268180,0,1,1
116285860,0,4,1
116303532,0,36,1
116322256,0,1,1
116339944,0,0,1
116357616,0,9,1
116375300,1,1,1
116392980,0,16,1
116411700,1,4,1
116429372,4,1,1
116447048,4,4,1
116464740,9,0,1
116482428,9,36,1
116501140,4,16,1
116519856,1,0,1
116537552,1,4,1
116555216,0,4,1
116572892,0,49,1
116591624,1,9,1
116609300,4,0,1
116626976,1,4,1
116644660,0,1,1
116662344,0,36,1
116681068,1,9,1
116698732,4,0,1
116716424,0,4,1
116734108,0,0,1
116751788,0,121,1
116771536,1,121,1
116791292,9,16,1
116810032,1,1,1
116827700,0,0,1
116845372,1,9,1
116863056,0,0,1
116880740,0,16,1
116899460,1,4,1
116917140,1,0,1
116934832,0,16,1
116953536,0,16,1
116972264,0,1,1
116989932,1,0,1
117007620,0,1,1
117025296,0,9,1
117042980,1,1,1
117060656,0,9,1
117078344,0,16,1
117097048,0,4,1
117114732,0,4,1
117132424,1,4,1
117150112,0,4,1
117167772,0,4,1
117185444,1,4,1
117203140,1,1,1
117220812,0,36,1
117239540,0,4,1
117257212,1,0,1
117274904,0,9,1
117292580,0,0,1
117310264,0,25,1
117328980,0,9,1
117346660,4,0,1
117364328,0,9,1
117382008,0,0,1
117399700,0,25,1
117418408,0,9,1
117436096,0,0,1
117453772,0,16,1
117472504,0,9,1
117490184,0,16,1
117508904,0,9,1
117526580,1,0,1
117544252,0,4,1
117561932,0,1,1
117579620,0,49,1
117598348,0,4,1
117616020,1,0,1
117633692,0,9,1
117651372,0,1,1
117669064,0,9,1
117686732,0,4,1
117704412,0,1,1
117722084,0,1,1
117739780,0,36,1
117758508,0,9,1
117776168,0,0,1
117793864,0,4,1
117811544,1,0,1
117829224,0,16,1
117847940,0,4,1
117865624,0,1,1
117883300,0,9,1
117900980,1,0,1
117918656,1,25,1
117937388,0,9,1
117955056,1,0,1
117972740,1,9,1
117990436,1,1,1
118008112,1,25,1
118026816,0,9,1
118044492,1,0,1
118062168,0,9,1
118079856,0,9,1
118097540,1,4,1
118115216,0,4,1
118132904,0,4,1
118150576,0,0,1
118168264,0,25,1
118186972,0,4,1
118204660,1,1,1
118222332,0,9,1
118240008,0,0,1
118257696,0,25,1
118276424,1,4,1
118294100,1,1,1
118311784,0,16,1
118330508,0,1,1
118348184,0,16,1
118366900,0,9,1
118384572,1,0,1
118402260,0,1,1
118419940,1,1,1
118437620,0,49,1
118456344,0,16,1
118475060,1,0,1
118492744,1,1,1
118510420,0,4,1
118528104,0,36,1
118546832,1,1,1
118564504,1,4,1
118582172,0,9,1
118599860,1,1,1
118617540,1,36,1
118636256,0,1,1
118653924,1,4,1
118671620,0,9,1
118689308,1,0,1
118706984,0,25,1
118725704,1,4,1
118743380,1,0,1
118761052,0,1,1
118778732,0,0,1
118796420,0,25,1
118815140,0,4,1
118832812,0,0,1
118850492,1,9,1
118868180,4,0,1
118885864,1,16,1
118904576,0,4,1
118922256,1,0,1
118939940,0,9,1
118957612,0,4,1
118975296,0,9,1
118992976,1,4,1
119010672,1,4,1
119028332,0,0,1
119046024,0,25,1
119064740,0,9,1
119082412,4,1,1
119100092,0,1,1
119117772,0,0,1
119135456,0,25,1
119154172,0,4,1
119171860,1,0,1
119189544,0,9,1
119207224,0,4,1
119224900,0,9,1
119242580,0,4,1
119260260,0,1,1
119277936,0,4,1
119295612,0,49,1
119314332,0,9,1
119332020,1,0,1
119349696,0,9,1
119367380,1,0,1
119385060,0,25,1
119403792,0,16,1
119422508,1,0,1
119440168,0,0,1
119457856,0,9,1
119475536,0,36,1
119494256,1,4,1
119511932,1,1,1
119529624,0,9,1
119547316,1,1,1
119564976,0,36,1
119583688,0,9,1
119601368,0,0,1
119619052,0,4,1
119636732,0,0,1
119654428,0,49,1
119673144,1,16,1
119691856,1,0,1
119709536,0,1,1
119727224,0,4,1
119744904,0,36,1
119763612,0,4,1
119781284,0,1,1
119798980,0,4,1
119816660,0,1,1
119834340,0,36,1
119853044,0,9,1
119870736,1,0,1
119888432,0,4,1
119906092,0,1,1
119923788,0,16,1
119942500,0,4,1
119960172,1,0,1
119977848,0,4,1
119995540,0,0,1
120013232,1,25,1
120031940,0,4,1
120049616,4,0,1
120067308,0,9,3
120084984,1,9,3
120102660,0,9,3
120120352,0,16,3
120139060,1,4,3
120156740,1,4,3
120174416,0,9,3
120192096,0,4,3
120209776,0,4,3
120227452,0,9,3
120245132,0,0,3
120262832,1,16,3
120281544,0,4,3
120299216,1,0,3
120316884,0,9,3
120334576,0,0,3
120352260,0,25,3
120370972,0,9,3
120388660,4,0,3
120406336,0,16,3
120425060,0,9,3
120442740,1,25,3
120461460,0,9,3
120479140,0,0,3
120496808,0,4,3
120514492,1,0,3
120532180,0,25,3
120550900,0,4,3
120568584,1,0,3
120586272,0,4,3
120603948,0,1,3
120621624,1,16,3
120640344,1,4,3
120658020,0,0,3
120675696,0,9,3
120693368,0,0,3
120711060,0,81,3
120729780,0,25,3
120748504,0,0,3
120766184,0,4,3
120783848,0,0,3
120801544,1,25,3
120820272,0,9,3
120837928,1,0,3
120855616,0,9,3
120873300,1,0,3
120890980,0,16,3
120909700,0,4,3
120927380,1,1,3
120945068,0,16,3
120963780,0,1,3
120981456,1,16,3
121000180,0,1,3
121017852,0,1,3
121035532,1,1,3
121053220,1,4,3
121070904,9,100,3
121090664,64,64,3
121110416,49,1,3
121129140,0,1,3
121146816,1,4,3
121164492,49,36,3
121184252,121,36,3
121205060,36,1,3
121223776,0,0,3
121241468,9,1,3
121259140,16,0,3
121277860,4,4,3
121295536,9,9,3
121313204,64,0,3
121331940,49,9,3
121350656,9,1,3
121368336,4,16,3
121387060,36,1,3
121405780,0,1,3
121423460,9,4,3
121441140,25,4,3
121459856,121,16,3
121480652,16,4,3
121499376,0,1,3
121517048,0,16,3
121535788,0,4,3
121553464,4,1,3
121571144,0,1,3
121588828,36,36,3
121608576,9,64,3
121627296,1,25,3
121646020,1,4,3
121663708,25,9,3
121682416,4,16,3
121701140,121,36,3
121721948,1,25,3
121740664,1,0,3
121758336,0,9,3
121776020,1,4,3
121793704,4,9,3
121811380,1,9,3
121829060,1,1,3
121846736,196,1,3
121866508,256,0,3
121886264,9,1,3
121903948,225,1,3
121923708,9,0,3
121941380,64,0,3
121960096,9,0,3
121977776,121,9,3
121997540,100,4,3
122017304,25,0,3
122036020,16,16,3
122055780,121,16,3
122076588,81,1,3
122095300,100,64,3
122116092,4,144,3
122135856,25,36,3
122155620,1,36,3
122174348,0,25,3
122193068,25,1,3
122211776,121,1,3
122231540,121,1,3
122251296,81,4,3
122270024,121,36,3
122290824,144,0,3
122310568,25,0,3
122329312,400,4,3
122349048,144,0,3
122368816,9,1,3
122386500,1,25,3
122405224,0,36,3
122423944,16,4,3
122442656,25,1,3
122461392,9,1,3
122479064,16,0,3
122497784,4,25,3
122516504,36,49,3
122536268,1,16,3
122554980,25,16,3
122574736,361,25,3
122595536,576,81,3
122616340,25,36,3
122636096,289,16,3
122656908,4,25,3
122675620,81,0,3
122694336,16,4,3
122713064,9,4,3
122730740,0,9,3
122748420,0,0,3
122766100,64,81,3
122785860,9,49,3
122804576,36,0,3
122823292,25,0,3
122842016,25,1,3
122860756,4,1,3
122878424,144,0,3
122898172,81,0,3
122916900,9,16,3
122935628,4,4,3
122953292,36,9,3
122972020,16,9,3
122990740,64,0,3
123009456,25,0,3
123028180,225,25,3
123048992,729,36,3
123069792,121,0,3
123089532,25,9,3
123108252,1,9,3
123125948,49,16,3
123145688,64,25,3
123165452,36,4,3
123184180,49,16,3
123203944,81,1,3
123222664,0,1,3
123240344,4,4,3
123258028,36,25,3
123277776,121,16,3
123298572,4,1,3
123316260,0,36,3
123334980,0,0,3
123352652,25,9,3
123371376,1,9,3
123389068,441,4,3
123408832,484,1,3
123428572,9,1,3
123446260,400,1,3
123466032,144,25,3
123486820,16,25,3
123506568,100,4,3
123526344,49,0,3
123545052,4,1,3
123562740,0,49,3
123581460,4,100,3
123601216,0,49,3
123619940,16,9,3
123638660,121,9,3
123658428,25,16,3
123678172,196,36,3
123698984,4,16,3
123717704,9,9,3
123735388,36,9,3
123754100,25,4,3
123772824,121,0,3
123792576,324,25,3
123813380,25,16,3
123833140,49,0,3
123851860,16,0,3
123870580,16,1,3
123889296,36,1,3
123908020,1,16,3
123926740,49,0,3
123945460,144,25,3
123966260,9,16,3
123984980,81,9,3
124003700,121,9,3
124023464,9,4,3
124041128,64,4,3
124059860,25,1,3
124078576,9,4,3
124096260,81,16,3
124116028,196,0,3
124135796,25,9,3
124154508,0,0,3
124172184,1,1,3
124189860,16,0,3
124208580,1,0,3
124226256,16,0,3
124244964,121,4,3
124264748,4,9,3
124282420,36,16,3
124302196,0,1,3
124319864,16,4,3
124338580,25,1,3
124357296,25,16,3
124377056,100,0,3
124396828,441,25,3
124417612,256,1,3
124437380,49,16,3
124457144,64,0,3
124475868,16,4,3
124494588,0,1,3
124512264,1,25,3
124530988,9,16,3
124549704,36,1,3
124568420,100,0,3
124588184,25,1,3
124606904,49,1,3
124625612,25,64,3
124645368,25,64,3
124665140,36,1,3
124683864,0,0,3
124701540,121,36,3
124722340,100,16,3
124743144,49,16,3
124762900,81,0,3
124781624,16,4,3
124800352,36,9,3
124819064,49,1,3
124837776,64,16,3
124857540,16,4,3
124876268,81,1,3
124894976,169,4,3
124914740,64,0,3
124933468,0,1,3
124951128,4,81,3
124969864,36,9,3
124988596,9,9,3
125006252,81,0,3
125024980,16,0,3
125043684,25,0,3
125062428,25,16,3
125082172,169,1,3
125101936,256,1,3
125121716,9,0,3
125139380,49,4,3
125158100,16,9,3
125176808,36,4,3
125195548,144,0,3
125215292,100,0,3
125235048,0,25,3
125253784,9,0,3
125271468,49,36,3
125291220,144,4,3
125310964,0,0,3
125328668,0,0,3
125346352,9,0,3
125364012,4,4,3
125381704,9,4,3
125399380,0,25,3
125418100,121,36,3
125438896,196,16,3
125459708,169,25,3
125480500,121,25,3
125501300,4,36,3
125520024,121,16,3
125540820,49,16,3
125560576,1,16,3
125579304,36,1,3
125598024,64,16,3
125617784,0,4,3
125635456,36,0,3
125654192,64,4,3
125672896,0,0,3
125690584,25,1,3
125709284,9,25,3
125728020,9,9,3
125745704,36,0,3
125764428,144,4,3
125784180,9,16,3
125802900,9,16,3
125821620,25,0,3
125840336,25,16,3
125860104,16,16,3
125879864,196,36,3
125900656,361,64,3
125921460,121,25,3
125942252,64,1,3
125960980,4,0,3
125978664,256,64,3
125999464,100,81,3
126020256,196,9,3
126040020,324,16,3
126060824,1,1,3
126078512,64,25,3
126098260,324,36,3
126119068,36,0,3
126137784,36,36,3
126157536,1,25,3
126176248,100,4,3
126196020,36,9,3
126214744,1,4,3
126232428,25,36,3
126252184,49,9,3
126270900,441,1,3
126290664,196,9,3
126310432,4,4,3
126328104,9,4,3
126345772,16,0,3
126364492,441,9,3
126384256,36,25,3
126404020,64,9,3
126422740,0,0,3
126440412,16,121,3
126461216,144,16,3
126482012,1681,81,3
126503852,841,64,3
126524664,0,9,3
126542352,169,16,3
126563140,1024,81,3
126584976,400,196,3
126606816,81,324,3
126627608,64,144,3
126648420,196,64,3
126669204,676,81,3
126690012,225,64,3
126710824,64,1,3
126729548,16,0,3
126748252,100,36,3
126769052,100,0,3
126788824,4,81,3
126807536,576,9,3
126827304,256,25,3
126848108,36,0,3
126866824,484,9,3
126886572,196,25,3
126907368,81,9,3
126926112,1,16,3
126944824,0,4,3
126962508,36,1,3
126981220,64,4,3
126999936,1,16,3
127018656,289,16,3
127039452,784,121,3
127061304,529,9,3
127081064,0,1,3
127098732,81,4,3
127117468,0,1,3
127135144,36,0,3
127153856,676,49,3
127174640,441,100,3
127196504,16,16,3
127216260,9,1,3
127233940,4,16,3
127252660,324,36,3
127273448,1156,16,3
127295300,100,121,3
127317144,625,0,3
127336900,100,9,3
127356652,81,16,3
127376416,441,9,3
127396184,144,49,3
127416984,400,4,3
127436736,1225,4,3
127457548,961,9,3
127477300,25,81,3
127497068,196,16,3
127517868,64,16,3
127537624,9,1,3
127555300,9,1,3
127572972,16,25,3
127592736,36,9,3
127611460,25,1,3
127630180,9,0,3
127647872,64,0,3
127666580,16,0,3
127685304,49,1,3
127704012,100,9,3
127723788,81,16,3
127743532,0,25,3
127762248,121,0,3
127782024,196,9,3
127801788,1,0,3
127819460,225,1,3
127839208,36,0,3
127857940,9,0,3
127875632,36,0,3
127894332,625,4,3
127914100,289,1,3
127933872,0,1,3
127951548,9,0,3
127969212,36,1,3
127987948,225,9,3
128007692,1024,81,3
128029540,169,36,3
128050340,49,1,3
128069060,9,0,3
128086744,49,1,3
128105456,36,16,3
128125220,225,25,3
128146016,16,4,3
128164740,361,1,3
128184496,100,4,3
128204248,36,0,3
128222976,0,0,3
128240660,484,1,3
128260424,289,16,3
128281216,4,25,3
128299936,64,9,3
128318656,121,16,3
128339460,49,1,3
128358176,196,25,3
128378976,1,16,3
128397700,25,0,3
128416420,1,4,3
128434096,9,0,3
128451796,49,1,3
128470508,16,9,3
128489228,1,4,3
128506904,4,4,3
128524584,9,0,3
128542248,36,49,3
128562012,225,36,3
128582828,441,1,3
128602568,324,0,3
128622344,49,0,3
128641056,729,16,3
128661864,484,49,3
128682664,576,16,3
128703452,400,25,3
128724260,0,16,3
128742988,4,4,3
128760656,9,9,3
128778344,16,1,3
128797072,49,49,3
128816816,4,9,3
128834488,4,4,3
128852184,16,16,3
128871940,9,1,3
128889628,64,1,3
128908348,225,16,3
128929144,169,4,3
128948896,484,4,3
128968652,324,25,3
128989464,144,4,3
129009220,81,9,3
129027936,9,25,3
129046656,49,0,3
129065384,36,9,3
129084096,324,16,3
129104900,25,1,3
129123624,49,16,3
129143376,144,36,3
129164180,1,16,3
129182904,196,4,3
129202656,169,0,3
129222424,1,4,3
129240104,9,0,3
129257780,0,1,3
129275464,16,1,3
129294180,25,4,3
129312908,49,1,3
129331632,64,9,3
129350340,25,9,3
129369056,1,1,3
129386744,16,1,3
129405468,1,1,3
129423128,0,0,3
129440824,25,0,3
129459540,0,1,3
129477216,100,4,3
129496984,576,36,3
129517784,144,49,3
129538596,4,1,3
129556272,4,9,3
129573940,81,64,3
129593700,361,16,3
129614504,361,1,3
129634244,256,16,3
129655068,100,4,3
129674812,16,1,3
129693528,16,0,3
129712272,81,1,3
129730976,64,0,3
129749688,16,9,3
129768412,16,9,3
129787148,1,9,3
129804828,16,1,3
129823536,25,4,3
129842268,4,0,3
129859952,16,49,3
129879700,1,16,3
129898412,9,0,3
129916104,0,1,3
129933788,0,1,3
129951468,441,25,3
129972260,529,121,3
129994108,81,0,3
130012820,576,144,3
130034652,81,144,3
130055464,0,36,6
130074176,4,16,6
130092900,25,0,6
130111620,49,36,6
130131380,4,4,6
130149052,64,1,6
130167776,81,4,6
130186504,36,1,6
130205236,16,1,6
130223940,4,1,6
130241620,9,25,6
130260340,9,16,6
130279056,4,0,6
130296736,256,1,6
130316496,576,25,6
130337300,64,4,6
130356016,49,9,6
130374744,121,1,6
130394504,16,16,6
130414264,81,0,6
130432972,196,1,6
130452744,81,1,6
130471464,676,25,6
130492256,9,16,6
130510976,576,1,6
130530732,64,9,6
130549464,16,0,6
130568176,81,16,6
130587944,324,0,6
130607708,361,9,6
130627460,4,25,6
130646176,16,25,6
130665940,4,1,6
130683616,0,9,6
130701288,1,36,6
130720024,1,1,6
130737700,81,36,6
130757452,4,16,6
130776200,0,0,6
130793868,49,4,6
130812572,36,16,6
130832324,121,4,6
130852112,324,1,6
130871860,225,4,6
130891620,121,0,6
130911380,100,0,6
130931132,81,9,6
130949860,1,0,6
130967532,49,36,6
130987296,0,16,6
131006016,4,1,6
131023692,81,16,6
131043460,64,4,6
131062180,25,0,6
131080900,1,9,6
131098572,4,0,6
131116272,36,36,6
131136028,196,4,6
131155780,9,0,6
131173456,441,49,6
131194252,900,81,6
131215068,1,4,6
131232740,225,25,6
131253540,25,16,6
131273292,169,1,6
131293048,0,0,6
131310740,9,1,6
131328424,1,1,6
131346096,81,9,6
131364808,36,16,6
131384580,169,16,6
131405372,9,0,6
131423056,0,9,6
131440744,4,9,6
131458432,441,0,6
131478180,1369,0,6
131498976,576,64,6
131519780,289,49,6
131540576,121,0,6
131560332,676,16,6
131581144,1089,25,6
131602984,1,9,6
131620656,361,64,6
131641464,144,4,6
131661220,36,9,6
131679928,81,1,6
131698660,49,0,6
131717380,400,1,6
131737128,1521,16,6
131758968,441,64,6
131779768,2401,16,6
131801624,2809,289,6
131824496,256,16,6
131845300,144,4,6
131865040,5776,64,6
131886888,7225,961,6
131909780,1156,676,6
131932660,196,16,6
131953456,25,676,6
131974252,400,1369,6
131997140,100,100,6
132018972,324,16,6
132039776,361,0,6
132059544,144,36,6
132080340,441,4,6
132100096,36,0,6
132118812,0,0,6
132136496,256,9,6
132156256,196,25,6
132177064,484,9,6
