Timestamp (micros),Sensor1 (mV),Sensor2 (mV)
8, 0
878347944, 1, 0
878365620, 0, 1
878383312, 1, 4
878400984, 0, 0
878418676, 4, 1916, 0, 0
878312612, 1, 0
878330280, 0, 0
878347944, 1, 0
878365620, 0, 1
878383312, 1, 4
878400984, 0, 0
878418676, 4, 1916, 0, 0
878312612, 1, 0
878330280, 0, 0
878347944, 1, 0
878365620, 0, 1
878383312, 1, 4
878400984, 0, 0
878418676, 4, 151612, 10609, 8836
53872, 9025, 3249
56096, 441, 196
58240, 100, 100
61704, 361, 529
79392, 324, 64
96028, 0, 36
110576, 144, 100
129312, 81, 16
145968, 16, 25
162600, 25, 9
178200, 4, 64
193792, 100, 4
210428, 25, 0
226036, 16, 16
242668, 25, 0
258288, 9, 9
272820, 36, 0
288428, 16, 1
304036, 4, 0
318604, 25, 0
334204, 1, 0
348752, 4, 0
363316, 1, 16
378924, 1, 0
393484, 4, 16
409064, 0, 0
423640, 4, 25
439236, 0, 1
453796, 0, 9
468356, 1, 9
482916, 4, 16
498508, 0, 1
513072, 4, 4
527632, 0, 16
543228, 0, 9
557784, 9, 9
572340, 4, 9
586916, 4, 4
601488, 1, 16
617076, 4, 0
631632, 1, 9
646196, 1, 1
660760, 4, 25
676356, 0, 0
690912, 1, 9
705468, 1, 0
720040, 1, 9
734592, 0, 0
749144, 4, 9
763720, 0, 1
778276, 4, 9
792848, 1, 1
807392, 4, 9
821964, 9, 4
836508, 0, 4
851072, 4, 16
866676, 1, 1
881240, 1, 16
896824, 0, 0
911392, 4, 16
926996, 0, 1
941552, 1, 4
956108, 0, 4
970660, 4, 16
986272, 4, 1
1000848, 0, 4
1016440, 9, 4
1032024, 9, 4
1047640, 0, 1
1063240, 4, 1
1078840, 0, 1
1094424, 0, 0
1110036, 4, 4
1125632, 0, 1
1141228, 0, 9
1156840, 1, 0
1172420, 0, 1
1188032, 0, 4
1203628, 0, 1
1219232, 0, 1
1234828, 0, 1
1250432, 0, 16
1267084, 1, 0
1282668, 0, 4
1298268, 0, 0
1313876, 1, 0
1329484, 1, 4
1345072, 1, 0
1360680, 1, 9
1376284, 1, 0
1391872, 0, 9
1407472, 1, 0
1423068, 1, 1
1438664, 0, 1
1454284, 1, 1
1469872, 1, 9
1485476, 0, 1
1501080, 1, 16
1517724, 1, 0
1533312, 0, 0
1548912, 1, 9
1564512, 1, 0
1580120, 0, 4
1595728, 4, 1
1611312, 1, 9
1626916, 1, 4
1642516, 0, 4
1658120, 0, 9
1673716, 1, 1
1689304, 0, 9
1704900, 9, 0
1720520, 4, 9
1736108, 0, 0
1751712, 0, 1
1767308, 0, 1
1782920, 4, 0
1798528, 1, 4
1814112, 1, 4
1829712, 0, 36
1846360, 1, 0
1861960, 0, 1
1877560, 1, 1
1893152, 1, 0
1908752, 1, 9
1924368, 1, 1
1939960, 0, 16
1956596, 4, 0
1972192, 0, 1
1987792, 0, 9
2003400, 1, 1
2018996, 0, 16
2035632, 4, 0
2051236, 4, 4
2066840, 1, 0
2082428, 4, 0
2098036, 1, 16
2114684, 4, 4
2130276, 4, 1
2145876, 0, 4
2161468, 0, 1
2177080, 1, 1
2192684, 0, 0
2208284, 1, 16
2224912, 4, 0
2240504, 1, 1
2256112, 0, 0
2271708, 0, 0
2287316, 1, 4
2302912, 1, 1
2318524, 0, 16
2335156, 9, 1
2350752, 1, 1
2366352, 0, 0
2381952, 4, 0
2397568, 1, 9
2413156, 0, 4
2428748, 0, 25
2445404, 4, 0
2460996, 0, 1
2476592, 0, 4
2492192, 1, 0
2507792, 4, 9
2523404, 1, 1
2538992, 0, 4
2554596, 1, 0
2570188, 1, 1
2585792, 0, 0
2601396, 0, 0
2616992, 4, 4
2632592, 1, 0
2648196, 0, 4
2663804, 4, 1
2679396, 1, 9
2694988, 0, 0
2710592, 1, 0
2726196, 0, 9
2741800, 1, 0
2757392, 0, 9
2772988, 4, 1
2788600, 1, 9
2804196, 0, 4
2819788, 0, 1
2835396, 1, 4
2850996, 0, 1
2866592, 0, 16
2883232, 4, 0
2898828, 1, 4
2914436, 0, 4
2930032, 1, 1
2945628, 4, 4
2961232, 1, 0
2976840, 4, 9
2992440, 1, 0
3008036, 1, 4
3023632, 0, 4
3039240, 1, 1
3054840, 4, 9
3070424, 0, 1
3086024, 4, 4
3101628, 1, 1
3117248, 1, 16
3133868, 0, 0
3149468, 0, 1
3165072, 1, 4
3180680, 1, 0
3196280, 1, 9
3211876, 4, 0
3227468, 4, 9
3243080, 0, 1
3258676, 0, 1
3274280, 0, 1
3289876, 4, 1
3305456, 1, 16
3322124, 1, 0
3337712, 0, 9
3353316, 1, 0
3368896, 0, 0
3384524, 1, 9
3400112, 4, 0
3415720, 4, 9
3431320, 1, 1
3446912, 1, 16
3463556, 0, 1
3479156, 1, 1
3494748, 0, 4
3510352, 1, 0
3525956, 0, 4
3541556, 4, 4
3557152, 0, 9
3572760, 1, 1
3588360, 1, 1
3603956, 1, 4
3619552, 1, 0
3635144, 0, 4
3650764, 1, 4
3666344, 0, 9
3681956, 1, 4
3697548, 0, 4
3713160, 4, 1
3728756, 0, 0
3744352, 1, 9
3759956, 1, 1
3775560, 1, 9
3791168, 1, 4
3806760, 1, 9
3822356, 1, 1
3837944, 0, 1
3853560, 0, 4
3869156, 1, 0
3884744, 4, 9
3900344, 0, 1
3915960, 0, 4
3931560, 1, 1
3947148, 1, 1
3962760, 1, 4
3978352, 4, 0
3993968, 4, 4
4009544, 1, 0
4025148, 0, 9
4040764, 4, 1
4056360, 0, 9
4071964, 4, 0
4087548, 0, 1
4103136, 0, 16
4119792, 4, 0
4135392, 1, 1
4151000, 4, 1
4166588, 1, 0
4182196, 0, 4
4197796, 4, 0
4213400, 1, 9
4228996, 1, 0
4244596, 4, 9
4260200, 0, 0
4275792, 0, 1
4291396, 1, 1
4306996, 0, 0
4322600, 0, 16
4339240, 9, 0
4354840, 4, 4
4370432, 1, 0
4386036, 0, 1
4401636, 0, 1
4417236, 1, 0
4432824, 0, 9
4448440, 1, 0
4464044, 1, 9
4479636, 1, 1
4495244, 0, 4
4510844, 9, 1
4526432, 0, 0
4542032, 1, 4
4557628, 1, 0
4573244, 9, 4
4588840, 0, 1
4604444, 1, 9
4620032, 1, 4
4635624, 0, 1
4651248, 1, 4
4666828, 0, 1
4682424, 4, 16
4699068, 1, 0
4714676, 0, 9
4730280, 0, 1
4745868, 0, 0
4761476, 1, 9
4777076, 4, 0
4792680, 0, 4
4808280, 4, 1
4823876, 0, 9
4839472, 1, 0
4855076, 0, 4
4870676, 1, 1
4886272, 0, 0
4901868, 0, 9
4917472, 1, 0
4933080, 1, 4
4948672, 0, 1
4964260, 0, 1
4979876, 1, 4
4995484, 1, 0
5011080, 4, 4
5026676, 0, 0
5042272, 1, 9
5057884, 1, 1
5073480, 1, 9
5089080, 1, 1
5104672, 0, 0
5120284, 1, 4
5135872, 1, 1
5151484, 9, 1
5167064, 0, 1
5182672, 0, 9
5198276, 1, 1
5213868, 0, 1
5229468, 0, 4
5245072, 0, 0
5260684, 1, 9
5276272, 1, 0
5291868, 0, 9
5307484, 4, 0
5323080, 1, 1
5338676, 1, 4
5354264, 0, 0
5369884, 1, 4
5385472, 1, 0
5401064, 1, 16
5417716, 1, 0
5433304, 0, 1
5448920, 1, 4
5464504, 0, 0
5480112, 1, 9
5495708, 1, 1
5511328, 1, 16
5527956, 0, 0
5543556, 0, 0
5559144, 0, 4
5574760, 4, 0
5590372, 25, 1
5606996, 1, 0
5622596, 0, 0
5638196, 1, 4
5653792, 4, 0
5669408, 9, 9
5684996, 0, 0
5700576, 0, 16
5717236, 4, 0
5732828, 0, 1
5748440, 1, 4
5764028, 1, 0
5779640, 1, 4
5795244, 1, 1
5810836, 1, 9
5826428, 0, 1
5842040, 4, 9
5857636, 4, 4
5873240, 1, 1
5888840, 1, 4
5904436, 1, 0
5920036, 1, 9
5935644, 4, 0
5951240, 1, 4
5966836, 4, 1
5982436, 0, 1
5998032, 1, 4
6013624, 0, 0
6029236, 0, 4
6044848, 4, 1
6060436, 0, 9
6076028, 4, 0
6091624, 0, 0
6107236, 1, 4
6122836, 0, 1
6138432, 0, 16
6155072, 9, 0
6170692, 1, 4
6186284, 4, 1
6201880, 0, 0
6217472, 1, 9
6233072, 1, 0
6248684, 0, 16
6265320, 9, 0
6280904, 4, 1
6296512, 1, 9
6312120, 0, 1
6327720, 0, 4
6343316, 9, 1
6358916, 9, 9
6374516, 0, 0
6390124, 1, 1
6405712, 0, 9
6421308, 0, 1
6436912, 0, 9
6452516, 4, 0
6468132, 9, 1
6483716, 1, 0
6499296, 4, 4
6514916, 0, 1
6530520, 0, 1
6546112, 0, 1
6561716, 4, 0
6577320, 1, 9
6592916, 4, 0
6608520, 4, 16
6625156, 0, 0
6640756, 0, 4
6656356, 0, 4
6671956, 1, 0
6687560, 1, 9
6703156, 4, 1
6718752, 4, 16
6735404, 1, 4
6751000, 0, 4
6766584, 9, 0
6782196, 0, 1
6797788, 0, 16
6814432, 9, 0
6830024, 0, 4
6845644, 4, 0
6861232, 0, 9
6876824, 1, 25
6893468, 1, 0
6909080, 1, 9
6924684, 1, 0
6940264, 0, 0
6955876, 1, 4
6971476, 0, 0
6987092, 1, 9
7002676, 1, 0
7018276, 1, 9
7033880, 1, 1
7049484, 0, 9
7065080, 4, 4
7080676, 0, 1
7096264, 1, 9
7111872, 4, 0
7127480, 9, 9
7143076, 0, 4
7158668, 1, 9
7174276, 0, 1
7189880, 1, 1
7205472, 0, 9
7221076, 1, 0
7236672, 1, 16
7253316, 9, 1
7268908, 4, 0
7284512, 0, 1
7300112, 0, 0
7315716, 4, 4
7331308, 0, 1
7346916, 0, 16
7363552, 1, 4
7379156, 0, 4
7394744, 0, 4
7410352, 16, 1
7426996, 16, 9
7443644, 0, 4
7459232, 0, 0
7474824, 0, 4
7490428, 9, 0
7506052, 9, 1
7521632, 1, 0
7537228, 4, 4
7552832, 0, 1
7568432, 0, 0
7584040, 0, 4
7599640, 1, 0
7615232, 1, 4
7630828, 1, 9
7646448, 4, 16
7663072, 0, 1
7678676, 1, 1
7694268, 1, 9
7709872, 1, 0
7725488, 1, 4
7741072, 0, 9
7756676, 0, 16
7773320, 4, 0
7788916, 1, 0
7804516, 0, 4
7820120, 9, 0
7835712, 1, 16
7852360, 4, 0
7867952, 0, 4
7883564, 0, 1
7899160, 1, 0
7914752, 4, 16
7931392, 9, 0
7947000, 9, 1
7962584, 0, 0
7978192, 1, 0
7993796, 1, 16
8010432, 9, 0
8026028, 9, 9
8041640, 0, 1
8057240, 0, 4
8072828, 0, 1
8088436, 0, 0
8104040, 4, 4
8119636, 0, 1
8135228, 0, 9
8150836, 9, 1
8166452, 4, 1
8182048, 1, 4
8197636, 4, 0
8213220, 4, 16
8229864, 1, 0
8245480, 0, 4
8261076, 4, 1
8276664, 0, 4
8292272, 1, 1
8307880, 0, 0
8323488, 1, 4
8339068, 0, 4
8354668, 0, 25
8371320, 4, 0
8386916, 0, 0
8402520, 1, 4
8418112, 1, 0
8433712, 0, 9
8449316, 4, 0
8464932, 1, 1
8480520, 0, 9
8496108, 1, 9
8511712, 4, 0
8527316, 1, 1
8542920, 1, 9
8558508, 1, 0
8574112, 1, 16
8590760, 1, 0
8606352, 1, 1
8621964, 9, 4
8637560, 0, 0
8653160, 4, 4
8668748, 0, 1
8684348, 0, 16
8701008, 4, 1
8716592, 0, 1
8732188, 1, 16
8748824, 1, 0
8764440, 0, 4
8780048, 1, 4
8795628, 0, 1
8811236, 4, 9
8826824, 0, 1
8842452, 1, 1
8858032, 1, 0
8873636, 1, 1
8889232, 0, 1
8904840, 0, 1
8920440, 1, 4
8936024, 0, 0
8951624, 1, 16
8968272, 4, 0
8983880, 1, 4
8999480, 1, 1
9015068, 0, 1
9030688, 1, 4
9046288, 1, 0
9061884, 4, 9
9077476, 4, 0
9093056, 4, 9
9108684, 1, 4
9124268, 0, 9
9139876, 1, 0
9155464, 0, 0
9171080, 1, 4
9186676, 0, 1
9202284, 0, 9
9217880, 4, 1
9233484, 1, 9
9249084, 1, 1
9264676, 0, 0
9280280, 1, 4
9295864, 0, 1
9311472, 0, 16
9328116, 4, 0
9343716, 1, 4
9359304, 0, 1
9374920, 1, 0
9390516, 1, 4
9406116, 1, 1
9421712, 0, 16
9438364, 4, 1
9453952, 0, 0
9469552, 1, 9
9485156, 4, 0
9500756, 4, 9
9516356, 1, 0
9531940, 4, 16
9548596, 1, 0
9564196, 0, 1
9579800, 0, 1
9595396, 1, 1
9610988, 4, 9
9626588, 1, 0
9642200, 0, 4
9657800, 0, 1
9673396, 1, 1
9688988, 1, 9
9704596, 1, 0
9720200, 1, 4
9735788, 1, 1
9751388, 4, 9
9767004, 0, 1
9782600, 1, 4
9798192, 4, 1
9813788, 1, 0
9829392, 4, 4
9844996, 0, 1
9860600, 1, 16
9877236, 0, 0
9892828, 1, 0
9908444, 1, 4
9924028, 1, 0
9939632, 0, 4
9955224, 0, 1
9970844, 1, 25
9987476, 4, 0
10003064, 0, 0
10019712, 0, 4
10036356, 4, 0
10052992, 0, 0
10069636, 4, 1
10086280, 0, 1
10102920, 0, 0
10119564, 1, 1
10136196, 4, 1
10152820, 4, 0
10169476, 0, 1
10186128, 4, 1
10202760, 1, 1
10219400, 9, 0
10236036, 0, 1
10252672, 1, 0
10269304, 0, 1
10285948, 0, 1
10302612, 0, 1
10319240, 4, 1
10335864, 0, 0
10352516, 0, 0
10369164, 1, 9
10385796, 0, 1
10402432, 0, 1
10419080, 1, 0
10435724, 1, 0
10452352, 0, 0
10468996, 1, 4
10485640, 0, 1
10502280, 0, 1
10518916, 0, 4
10535548, 0, 0
10552184, 0, 0
10568832, 1, 1
10585476, 0, 0
10602112, 0, 0
10618760, 4, 4
10635396, 0, 1
10652032, 0, 0
10668668, 4, 1
10685316, 1, 4
10701964, 1, 1
10718612, 4, 0
10735240, 0, 1
10751876, 0, 0
10768512, 0, 4
10785156, 0, 0
10801796, 0, 0
10818432, 0, 4
10835084, 1, 0
10851712, 0, 0
10868352, 1, 4
10884996, 1, 1
10901644, 1, 4
10918284, 1, 0
10934908, 0, 4
10951544, 0, 0
10968196, 1, 1
10984848, 4, 4
11001480, 1, 0
11018124, 4, 1
11034760, 0, 1
11051396, 0, 0
11068036, 0, 9
11084676, 9, 0
11101320, 1, 0
11117972, 1, 1
11134588, 0, 1
11151224, 0, 0
11167876, 4, 4
11184524, 1, 1
11201152, 0, 0
11217800, 1, 9
11234436, 4, 0
11251076, 4, 1
11267716, 1, 9
11284360, 4, 1
11301000, 4, 1
11317644, 0, 4
11334268, 0, 0
11350908, 1, 4
11367552, 0, 16
11385240, 4, 0
11401872, 0, 1
11418512, 0, 9
11435160, 1, 0
11451796, 0, 4
11468436, 0, 16
11486108, 0, 0
11502764, 1, 1
11519412, 1, 1
11536040, 1, 0
11552668, 0, 4
11569324, 1, 1
11585956, 0, 1
11602592, 1, 4
11619236, 0, 1
11635892, 1, 4
11652524, 1, 0
11669152, 1, 0
11685788, 1, 1
11702444, 0, 4
11719092, 0, 9
11735716, 1, 0
11752348, 0, 1
11769004, 0, 1
11785644, 9, 1
11802276, 0, 1
11818920, 1, 1
11835572, 4, 1
11852192, 0, 0
11868828, 4, 0
11885464, 0, 4
11902120, 0, 1
11918760, 0, 4
11935392, 0, 0
11952032, 1, 1
11968680, 1, 0
11985324, 1, 1
12001956, 0, 0
12018592, 1, 0
12035248, 1, 0
12051892, 1, 1
12068516, 4, 0
12085148, 0, 1
12101792, 9, 0
12118436, 9, 0
12135080, 0, 16
12152740, 1, 0
12169392, 0, 0
12186036, 4, 9
12202672, 0, 0
12219304, 0, 1
12235960, 1, 9
12252596, 1, 0
12269228, 0, 1
12285868, 0, 9
12302524, 1, 0
12319152, 1, 1
12335800, 1, 4
12352432, 0, 0
12369076, 1, 1
12385712, 4, 9
12402356, 1, 0
12418988, 0, 1
12435652, 1, 1
12452272, 1, 16
12469948, 0, 4
12486584, 4, 1
12503232, 0, 0
12519876, 0, 1
12536516, 0, 1
12553152, 4, 0
12569796, 0, 4
12586432, 1, 1
12603072, 1, 0
12619712, 0, 4
12636372, 0, 9
12653000, 4, 0
12669632, 0, 0
12686264, 1, 4
12702920, 0, 4
12719560, 1, 4
12736204, 0, 1
12752832, 4, 1
12769480, 1, 0
12786112, 1, 1
12802752, 1, 0
12819392, 1, 1
12836044, 4, 4
12852676, 4, 0
12869308, 1, 4
12885940, 0, 4
12902604, 1, 1
12919232, 0, 0
12935872, 0, 4
12952508, 0, 1
12969160, 0, 1
12985796, 1, 1
13002432, 0, 0
13019068, 1, 1
13035720, 4, 4
13052356, 1, 0
13068984, 0, 0
13085624, 0, 0
13102276, 0, 4
13118916, 4, 1
13135560, 4, 4
13152196, 0, 0
13168840, 0, 1
13185472, 4, 0
13202112, 1, 4
13218752, 1, 1
13235408, 1, 1
13252032, 0, 0
13268668, 0, 4
13285308, 1, 1
13301956, 0, 1
13318596, 1, 0
13335244, 4, 0
13351876, 0, 1
13368516, 0, 1
13385152, 4, 0
13401788, 0, 4
13418428, 1, 0
13435084, 4, 1
13451720, 1, 0
13468348, 0, 4
13484980, 0, 0
13501644, 0, 16
13519316, 9, 0
13535964, 1, 4
13552592, 1, 0
13569236, 0, 0
13585864, 0, 0
13602516, 1, 4
13619152, 0, 1
13635800, 0, 0
13652440, 0, 4
13669080, 4, 0
13685696, 0, 0
13702364, 1, 9
13718996, 1, 0
13735632, 0, 0
13752280, 4, 1
13768916, 0, 0
13785544, 0, 0
13802196, 1, 1
13818824, 0, 0
13835480, 0, 1
13852128, 1, 4
13868760, 1, 1
13885388, 1, 0
13902044, 1, 9
13918684, 1, 0
13935312, 0, 0
13951964, 4, 4
13968600, 0, 0
13985228, 1, 1
14001868, 0, 4
14018512, 1, 1
14035164, 0, 1
14051800, 9, 16
14069468, 1, 0
14086112, 9, 1
14102752, 9, 4
14119396, 1, 4
14136040, 0, 0
14152668, 1, 4
14169320, 1, 0
14185948, 0, 1
14202592, 1, 4
14219220, 0, 0
14235876, 4, 1
14252520, 16, 4
14270196, 0, 0
14286820, 0, 4
14303472, 0, 4
14320116, 4, 1
14336756, 1, 0
14353388, 9, 1
14370052, 0, 0
14386672, 0, 4
14403304, 0, 0
14419948, 4, 9
14436596, 1, 0
14453236, 4, 0
14469880, 1, 4
14486500, 0, 0
14503160, 1, 0
14519792, 4, 1
14536436, 0, 0
14553068, 0, 0
14569732, 9, 1
14586348, 0, 0
14602992, 0, 0
14619632, 4, 1
14636284, 1, 4
14652912, 0, 4
14669560, 4, 0
14686192, 1, 0
14702836, 1, 0
14719476, 9, 4
14736116, 1, 1
14752752, 1, 0
14769400, 4, 0
14786036, 0, 0
14802664, 0, 0
14819304, 4, 0
14835956, 0, 1
14852600, 4, 1
14869240, 0, 4
14885864, 0, 1
14902520, 0, 0
14919156, 1, 4
14935792, 4, 0
14952428, 1, 0
14969084, 1, 0
14985716, 1, 0
15002352, 1, 0
15018988, 4, 1
15035636, 0, 1
15052268, 0, 0
15068916, 1, 1
15085556, 0, 1
15102188, 0, 0
15118836, 9, 9
15135476, 0, 0
15152108, 0, 0
15168772, 1, 4
15185400, 0, 1
15202032, 1, 1
15218668, 4, 4
15235324, 4, 0
15251952, 4, 4
15268604, 0, 9
15285228, 1, 0
15301872, 1, 0
15318516, 9, 1
15335156, 0, 0
15351792, 0, 1
15368440, 0, 9
15385080, 9, 0
15401712, 1, 0
15418348, 1, 4
15434992, 0, 0
15451636, 1, 0
15468284, 0, 1
15484920, 4, 1
15501564, 1, 0
15518196, 9, 25
15535872, 0, 4
15552504, 0, 4
15569172, 0, 4
15585800, 1, 0
15602428, 1, 0
15619068, 4, 9
15635720, 0, 0
15652348, 1, 4
15669004, 1, 4
15685632, 0, 9
15702276, 4, 1
15718916, 9, 1
15735552, 1, 0
15752184, 0, 1
15768848, 1, 1
15785480, 1, 0
15802116, 1, 1
15818740, 9, 9
15835400, 1, 0
15852036, 1, 4
15868676, 0, 9
15885324, 4, 1
15901956, 0, 1
15918588, 1, 4
15935232, 0, 0
15951860, 0, 1
15968524, 0, 4
15985168, 1, 1
16001792, 0, 1
16018420, 4, 1
16035072, 0, 0
16051716, 1, 4
16068356, 1, 9
16084996, 4, 0
16101632, 0, 4
16118272, 1, 4
16134920, 1, 1
16151544, 0, 0
16168212, 1, 1
16184840, 0, 4
16201464, 0, 0
16218096, 1, 9
16234764, 1, 1
16251388, 0, 1
16268040, 1, 1
16284672, 0, 1
16301316, 0, 1
16317952, 0, 4
16334596, 1, 1
16351220, 0, 4
16367892, 1, 16
16385572, 1, 0
16402196, 0, 1
16418832, 0, 0
16435472, 4, 1
16452124, 4, 9
16468752, 0, 1
16485408, 1, 4
16502040, 0, 1
16518684, 0, 0
16535316, 4, 1
16551964, 1, 1
16568600, 0, 0
16585252, 4, 1
16601872, 0, 1
16618516, 1, 1
16635156, 1, 1
16651804, 4, 1
16668428, 1, 0
16685080, 1, 0
16701720, 0, 1
16718356, 0, 1
16735000, 9, 4
16751644, 1, 1
16768280, 4, 1
16784924, 0, 9
16801560, 1, 1
16818196, 0, 1
16834844, 9, 1
16851472, 0, 0
16868120, 0, 0
16884760, 4, 4
16901404, 1, 0
16918036, 0, 0
16934676, 4, 1
16951316, 0, 4
16967968, 0, 0
16984616, 9, 1
17001244, 0, 1
17017876, 0, 1
17034524, 9, 9
17051156, 0, 1
17067804, 1, 0
17084444, 9, 4
17101076, 1, 0
17117720, 0, 1
17134356, 4, 9
17151004, 1, 0
17167640, 0, 1
17184292, 0, 1
17200920, 4, 1
17217564, 0, 0
17234204, 4, 1
17250844, 1, 4
17267480, 0, 0
17284120, 4, 4
17300756, 1, 0
17317408, 1, 0
17334036, 4, 4
17350684, 0, 0
17367320, 0, 1
17383968, 1, 9
17400596, 1, 0
17417232, 1, 0
17433876, 1, 4
17450520, 1, 0
17467152, 0, 1
17483808, 1, 4
17500440, 0, 0
17517072, 0, 0
17533704, 1, 9
17550352, 4, 0
17567000, 1, 1
17583652, 0, 1
17600280, 1, 0
17616920, 1, 1
17633564, 4, 9
17650200, 0, 0
17666836, 0, 0
17683496, 1, 1
17700124, 0, 4
17716764, 1, 0
17733388, 9, 4
17750044, 0, 0
17766680, 0, 1
17783328, 1, 9
17799956, 1, 0
17816600, 0, 0
17833232, 9, 1
17849884, 1, 1
17866508, 0, 4
17883160, 0, 9
17899800, 4, 0
17916440, 0, 0
17933064, 0, 4
17949728, 4, 0
17966360, 0, 0
17983012, 4, 4
17999636, 0, 0
18016276, 0, 1
18032916, 4, 1
18049564, 0, 1
18066196, 1, 0
18082856, 9, 4
18099484, 0, 1
18116116, 0, 0
18132756, 9, 4
18149404, 1, 1
18166052, 1, 1
18182692, 4, 9
18199312, 0, 0
18215956, 0, 4
18232600, 4, 9
18249244, 1, 0
18265872, 0, 0
18282528, 1, 1
18299168, 4, 0
18315796, 0, 4
18332424, 9, 1
18349076, 1, 1
18365716, 4, 0
18382372, 9, 4
18398992, 1, 0
18415636, 0, 4
18432276, 4, 4
18448928, 0, 1
18465548, 0, 1
18482204, 0, 4
18498852, 1, 4
18515480, 1, 0
18532104, 4, 1
18548752, 1, 0
18565400, 0, 1
18582048, 4, 9
18598668, 0, 0
18615312, 1, 4
18631956, 4, 4
18648604, 0, 1
18665236, 1, 0
18681884, 9, 4
18698520, 0, 1
18715164, 1, 0
18731796, 4, 1
18748432, 0, 4
18765080, 1, 0
18781720, 1, 1
18798356, 0, 0
18814996, 1, 0
18831636, 0, 1
18848284, 1, 1
18864920, 1, 1
18881568, 1, 4
18898208, 1, 0
18914836, 0, 1
18931464, 0, 9
18948116, 4, 0
18964752, 0, 0
18981400, 4, 1
18998040, 0, 0
19014672, 0, 4
19031312, 0, 4
19047964, 4, 0
19064584, 0, 0
19081244, 0, 1
19097884, 4, 0
19114516, 0, 4
19131144, 0, 9
19147804, 1, 0
19164432, 0, 0
19181084, 1, 0
19197724, 1, 1
19214360, 4, 1
19230996, 1, 1
19247640, 0, 4
19264276, 1, 0
19280920, 0, 1
19297560, 9, 0
19314192, 0, 4
19330828, 4, 4
19347484, 0, 1
19364112, 4, 0
19380760, 4, 0
19397404, 0, 4
19414044, 1, 0
19430676, 4, 1
19447312, 0, 0
19463956, 0, 4
19480600, 0, 1
19497240, 4, 0
19513884, 1, 1
19530508, 4, 0
19547156, 0, 1
19563808, 1, 1
19580452, 1, 1
19597080, 1, 1
19613716, 4, 0
19630348, 4, 0
19647000, 0, 4
19663640, 0, 1
19680288, 1, 0
19696920, 0, 1
19713564, 1, 4
19730192, 1, 1
19746832, 1, 1
19763484, 1, 4
19780132, 1, 4
19796764, 0, 1
19813404, 4, 1
19830032, 1, 4
19846684, 1, 0
19863320, 0, 1
19879968, 0, 1
19896612, 4, 1
19913240, 4, 0
19929876, 1, 1
19946520, 4, 0
19963160, 0, 1
19979804, 1, 0
19996432, 0, 4
20013076, 0, 1
20029720, 1, 1
20046352, 0, 4
20063000, 4, 0
20079640, 0, 0
20096296, 9, 0
20112928, 0, 4
20129548, 0, 4
20146204, 1, 1
20162844, 4, 1
20179484, 0, 1
20196120, 0, 4
20212756, 9, 0
20229400, 4, 0
20246044, 1, 1
20262668, 0, 1
20279316, 0, 1
20295964, 0, 1
20312604, 0, 1
20329236, 1, 0
20345884, 4, 4
20362524, 4, 0
20379168, 4, 1
20395792, 0, 4
20412436, 9, 1
20429080, 0, 0
20445724, 9, 4
20462344, 0, 0
20478996, 0, 0
20495640, 0, 4
20512284, 4, 1
20528908, 16, 1
20546596, 0, 1
20563236, 9, 1
20579884, 4, 4
20596512, 1, 36
20614192, 4, 4
20630840, 16, 16
20649560, 4, 121
20668276, 36, 36
20686996, 0, 4
20703644, 4, 4
20720280, 16, 1
20737948, 100, 16
20757720, 144, 25
20777480, 64, 36
20796192, 0, 121
20814924, 49, 144
20834676, 49, 196
20854436, 1, 625
20873148, 9, 64
20890840, 225, 289
20911644, 256, 36
20931396, 81, 9
20949080, 25, 81
20967796, 16, 16
20986516, 16, 9
21004192, 81, 1
21021888, 9, 25
21039552, 16, 25
21058260, 289, 784
21079072, 169, 3600
21100916, 25, 2304
21121708, 64, 25
21140432, 16, 169
21160204, 16, 144
21179948, 64, 225
21199724, 64, 0
21217396, 36, 100
21237152, 49, 676
21256896, 9, 529
21275620, 4, 4
21292272, 4, 4
21308912, 81, 100
21328676, 64, 289
21348440, 100, 841
21369232, 100, 529
21390028, 100, 121
21410836, 9, 729
21429564, 0, 729
21448268, 25, 64
21466988, 0, 16
21484684, 49, 1
21502360, 9, 1
21518992, 36, 4
21536672, 4, 64
21554356, 9, 36
21572040, 36, 9
21589708, 16, 25
21608428, 1, 121
21627164, 9, 0
21643808, 9, 49
21661484, 0, 64
21679164, 0, 9
21695796, 1, 16
21713472, 0, 9
21730120, 0, 16
21747808, 9, 1
21764440, 16, 9
21782112, 1, 64
21799784, 4, 81
21817484, 9, 16
21835156, 1, 36
21852840, 0, 64
21870512, 9, 9
21887152, 1, 0
21903784, 0, 0
21920436, 4, 4
21937076, 0, 16
21954760, 0, 81
21972432, 16, 81
21991156, 49, 0
22008828, 9, 4
22025484, 1, 16
22043160, 9, 4
22059792, 4, 0
22076436, 1, 0
22093076, 9, 0
22109732, 4, 4
22126352, 225, 1
22145084, 100, 0
22163808, 9, 1
22180440, 9, 1
22197080, 1, 1
22213716, 36, 64
22232444, 25, 121
22252192, 9, 49
22269868, 9, 49
22287560, 4, 16
22305236, 25, 36
22323944, 25, 64
22342684, 1, 25
22360356, 0, 4
22377008, 4, 1
22393636, 25, 1
22411316, 9, 16
22428996, 16, 100
22448760, 49, 361
22468516, 121, 1
22487240, 81, 9
22504916, 0, 0
22521552, 1, 0
22538192, 25, 4
22555880, 0, 36
22573560, 9, 1
22590200, 0, 0
22606828, 4, 0
22623472, 16, 16
22642196, 0, 9
22658828, 1, 9
22675476, 1, 4
22692116, 0, 25
22709808, 1, 49
22727476, 1, 4
22744120, 0, 0
22760756, 9, 0
22777396, 1, 1
22794024, 16, 0
22811724, 49, 36
22830436, 0, 225
22849152, 36, 16
22867864, 36, 81
22886600, 0, 36
22904280, 25, 36
22922996, 9, 289
22941720, 64, 36
22960440, 25, 0
22978108, 25, 1
22995808, 9, 9
23012440, 1, 49
23030120, 16, 16
23048832, 4, 49
23066508, 9, 25
23084208, 36, 1
23101876, 25, 16
23120600, 9, 1
23137224, 1, 0
23153876, 1, 9
23170512, 4, 16
23188188, 4, 9
23204828, 9, 121
23223564, 1, 16
23241244, 4, 1
23257880, 1, 25
23275560, 9, 1
23292196, 0, 0
23308836, 0, 1
23325472, 9, 4
23342116, 1, 0
23358760, 4, 1
23375404, 4, 0
23392040, 4, 0
23408672, 16, 0
23426356, 4, 4
23442996, 1, 64
23460676, 1, 25
23478356, 1, 0
23494996, 0, 4
23511644, 0, 9
23528284, 16, 1
23545956, 25, 0
23563640, 9, 16
23581316, 1, 36
23598996, 1, 36
23616672, 1, 4
23633312, 1, 0
23649952, 9, 9
23666588, 0, 49
23684272, 16, 0
23701948, 4, 36
23719624, 0, 16
23737300, 0, 0
23753952, 1, 0
23770588, 4, 0
23787240, 4, 4
23803868, 1, 1
23820516, 1, 9
23837164, 1, 169
23855876, 0, 36
23873560, 1, 4
23890200, 16, 4
23907884, 4, 9
23924508, 36, 4
23942204, 0, 4
23958840, 0, 4
23975468, 4, 9
23992120, 4, 4
24008756, 0, 1
24025408, 0, 25
24043076, 4, 25
24060756, 1, 1
24077400, 1, 0
24094036, 36, 0
24111716, 81, 1
24129384, 25, 0
24147084, 0, 1
24163720, 0, 9
24180356, 9, 9
24196996, 25, 1
24214692, 4, 16
24232364, 0, 121
24251068, 0, 144
24269788, 16, 36
24288516, 16, 36
24307240, 1, 144
24325952, 0, 0
24342604, 1, 49
24360276, 1, 9
24376912, 9, 0
24393556, 1, 16
24411248, 49, 121
24431000, 16, 49
24449716, 25, 9
24467380, 100, 144
24488200, 9, 784
24506908, 1, 324
24525624, 25, 144
24545404, 4, 49
24563076, 4, 0
24579704, 0, 9
24596352, 4, 100
24615084, 4, 25
24632756, 0, 4
24649384, 36, 64
24668096, 81, 25
24686832, 36, 100
24706604, 0, 256
24725308, 0, 81
24743004, 1, 36
24760680, 4, 25
24778356, 0, 81
24796036, 16, 144
24815808, 100, 36
24835556, 144, 0
24854272, 49, 1
24871956, 0, 64
24889644, 16, 4
24907320, 25, 121
24927076, 4, 64
24944760, 9, 1
24961396, 49, 25
24980116, 9, 1
24996752, 0, 81
25014444, 1, 81
25032112, 9, 16
25049800, 25, 0
25067472, 64, 0
25085160, 16, 25
25103872, 0, 16
25121548, 4, 16
25139232, 16, 4
25156916, 25, 4
25174600, 1, 25
25192284, 0, 25
25209956, 16, 49
25228676, 9, 36
25246360, 1, 0
25262984, 9, 36
25280684, 25, 121
25300440, 0, 36
25318120, 9, 256
25336840, 9, 16
25354520, 49, 25
25373224, 25, 0
25390908, 1, 4
25407556, 0, 16
25425248, 4, 36
25442904, 0, 4
25459556, 0, 81
25477232, 36, 36
25495960, 9, 0
25512600, 9, 100
25531308, 1, 25
25549008, 0, 4
25565632, 0, 49
25583312, 9, 81
25600988, 4, 0
25617636, 4, 16
25635308, 0, 9
25651948, 9, 9
25668584, 25, 36
25687316, 0, 9
25703968, 4, 25
25721636, 9, 1
25738284, 9, 81
25755960, 81, 289
25775712, 0, 100
25794440, 49, 4
25812112, 9, 64
25829804, 1, 4
25846440, 1, 4
25863072, 4, 0
25879716, 25, 0
25897396, 16, 1
25915068, 16, 169
25934824, 36, 256
25954596, 49, 9
25972268, 16, 0
25989960, 4, 0
26006596, 0, 1
26023240, 16, 1
26040916, 0, 0
26057560, 1, 0
26074204, 0, 9
26090840, 1, 100
26109552, 0, 36
26127236, 0, 1
26143892, 1, 1
26160520, 1, 1
26177156, 4, 9
26193788, 0, 1
26210432, 0, 9
26227076, 0, 81
26244752, 0, 9
26261396, 1, 16
26279084, 9, 4
26295712, 4, 9
26312348, 0, 36
26330028, 4, 25
26347728, 9, 1
26364356, 1, 1
26380992, 36, 0
26398664, 121, 4
26417408, 36, 1
26435068, 4, 1
26451704, 0, 1
26468340, 4, 1
26484996, 4, 9
26501628, 1, 4
26518272, 0, 4
26534904, 0, 1
26551560, 0, 1
26568196, 1, 0
26584836, 1, 0
26601460, 0, 4
26618116, 1, 25
26635796, 1, 1
26652432, 0, 1
26669080, 1, 9
26685724, 9, 0
26702368, 9, 9
26719000, 1, 16
26736680, 0, 4
26753316, 1, 9
26769952, 0, 64
26787628, 0, 64
26805320, 0, 25
26822996, 0, 0
26839632, 0, 4
26856276, 1, 1
26872916, 1, 1
26889556, 0, 0
26906192, 0, 1
26922840, 0, 0
26939476, 0, 0
26956120, 0, 1
26972756, 1, 0
26989396, 4, 4
27006040, 0, 1
27022676, 1, 0
27039320, 0, 9
27055948, 1, 9
27072596, 0, 4
27089236, 0, 16
27106916, 0, 0
27123552, 0, 9
27140196, 4, 4
27156836, 4, 0
27173476, 1, 4
27190116, 1, 4
27206752, 0, 0
27223400, 0, 4
27240032, 0, 1
27256668, 0, 1
27273316, 0, 0
27289952, 0, 0
27306596, 1, 0
27323240, 0, 4
27339876, 0, 9
27356516, 0, 1
27373156, 0, 25
27390836, 1, 81
27408528, 1, 9
27425152, 0, 0
27441788, 0, 1
27458436, 1, 1
27475072, 1, 0
27491720, 0, 4
27508356, 0, 4
27524996, 0, 4
27541644, 0, 0
27558280, 0, 1
27574908, 0, 1
27591540, 1, 0
27608196, 1, 9
27624836, 0, 1
27641468, 0, 0
27658116, 1, 0
27674756, 0, 1
27691396, 0, 0
27708032, 0, 1
27724676, 1, 9
27741320, 0, 4
27757956, 0, 0
27774592, 0, 1
27791232, 0, 1
27807876, 4, 0
27824516, 0, 0
27841144, 4, 0
27857784, 9, 0
27874440, 1, 0
27891088, 1, 1
27907720, 9, 4
27924360, 4, 0
27940996, 0, 1
27957640, 0, 1
27974272, 0, 0
27990912, 0, 4
28007556, 0, 4
28024196, 1, 4
28040828, 0, 49
28058516, 1, 169
28077232, 4, 25
28094920, 1, 1
28111560, 1, 16
28129220, 0, 81
28146916, 0, 36
28164592, 1, 64
28182276, 0, 81
28199952, 0, 16
28217632, 0, 100
28236344, 25, 36
28255072, 36, 256
28274828, 25, 784
28294584, 196, 1296
28316432, 64, 196
28336200, 9, 64
28353880, 100, 144
28374664, 484, 144
28395460, 36, 0
28413164, 144, 0
28431868, 225, 9
28450596, 25, 1
28468276, 0, 0
28484912, 0, 9
28501548, 4, 64
28519236, 0, 81
28536932, 16, 4
28554596, 0, 1
28571236, 1, 1
28587868, 25, 121
28607644, 16, 441
28627392, 4, 225
28646116, 49, 169
28665880, 100, 36
28685640, 36, 16
28704352, 0, 49
28722040, 36, 121
28741804, 25, 1
28759472, 9, 100
28778196, 9, 36
28795876, 1, 49
28813568, 1, 9
28830192, 16, 1
28847876, 1, 4
28864504, 144, 36
28884276, 36, 121
28904024, 0, 225
28922756, 9, 144
28941472, 25, 100
28961232, 25, 1
28978916, 1, 16
28996596, 121, 196
29017392, 256, 256
29038188, 64, 0
29055864, 4, 0
29072512, 16, 4
29090204, 36, 64
29108920, 49, 0
29126580, 100, 16
29146364, 9, 16
29164040, 9, 36
29181712, 0, 16
29199404, 9, 4
29216044, 1, 4
29232676, 0, 9
29249308, 1, 0
29265968, 1, 9
29282596, 9, 4
29299236, 9, 1
29315872, 0, 1
29332528, 1, 36
29350208, 25, 49
29368908, 81, 144
29388676, 49, 225
29408436, 36, 81
29427160, 9, 4
29443796, 0, 0
29460424, 0, 0
29477080, 0, 49
29494752, 9, 225
29513464, 16, 49
29532196, 9, 16
29549884, 1, 16
29567556, 4, 0
29584196, 1, 1
29600836, 4, 16
29618516, 0, 100
29637240, 9, 0
29653884, 1, 144
29672604, 4, 1
29689248, 4, 36
29706916, 9, 0
29723548, 0, 36
29741232, 4, 64
29758920, 4, 1
29775548, 4, 25
29793228, 0, 100
29811956, 0, 9
29828588, 0, 4
29845228, 4, 9
29861864, 9, 1
29878520, 4, 4
29895152, 0, 16
29912828, 0, 9
29929484, 1, 1
29946124, 4, 0
29962744, 4, 4
29979392, 1, 16
29997076, 1, 1
30013712, 0, 0
30030356, 0, 4
30046984, 1, 0
30063636, 0, 1
30080280, 0, 1
30096924, 1, 1
30113548, 1, 0
30130196, 0, 0
30146836, 0, 9
30163472, 0, 9
30180120, 0, 1
30196752, 4, 64
30214432, 25, 144
30234196, 25, 4
30251876, 9, 0
30268532, 0, 1
30285160, 0, 64
30302824, 1, 361
30321556, 16, 196
30341316, 169, 25
30361080, 36, 0
30378756, 1, 16
30396440, 0, 16
30414128, 1, 1
30430756, 0, 1
30447400, 1, 1
30464040, 0, 1
30480680, 1, 16
30498364, 1, 9
30514996, 0, 0
30531644, 1, 0
30548284, 0, 4
30564904, 25, 16
30583628, 36, 16
30602356, 16, 1
30620048, 1, 144
30638756, 9, 144
30657468, 81, 9
30675152, 36, 0
30692836, 4, 1
30709476, 9, 0
30726108, 0, 0
30742764, 25, 9
30760424, 64, 25
30779148, 25, 9
30796832, 1, 0
30813476, 4, 0
30830124, 9, 1
30846756, 9, 4
30863404, 1, 36
30881076, 0, 25
30898760, 25, 9
30916436, 49, 0
30934116, 4, 1
30950760, 400, 0
30969476, 529, 0
30988192, 0, 4
31004836, 64, 16
31023552, 2116, 36
31044356, 1089, 169
31066204, 16, 4
31083884, 121, 4
31102600, 1, 1
31119236, 169, 16
31138996, 36, 16
31157716, 361, 1
31176432, 9, 9
31193080, 25, 1
31210760, 144, 0
31229484, 4, 0
31246112, 64, 9
31263800, 0, 4
31280444, 36, 4
31298112, 36, 0
31315796, 1, 9
31332452, 25, 9
31350116, 81, 9
31367788, 16, 1
31385468, 4, 4
31402116, 25, 0
31419792, 225, 0
31438516, 25, 1
31456192, 9, 0
31472844, 1, 16
31490516, 1, 49
31508196, 16, 0
31525872, 81, 9
31543560, 64, 16
31562284, 0, 4
31578916, 36, 16
31597632, 0, 36
31615320, 0, 0
31631964, 16, 4
31649636, 9, 0
31666280, 49, 16
31684996, 36, 9
31702680, 1, 1
31719312, 4, 64
31736988, 169, 0
31755708, 676, 100
31776512, 81, 64
31795240, 16, 0
31812920, 25, 4
31830608, 16, 1
31848280, 36, 4
31865972, 0, 1
31882592, 1, 1
31899228, 9, 9
31915872, 0, 1
31932524, 16, 0
31950196, 81, 16
31968908, 16, 25
31987636, 16, 9
32005328, 25, 0
32023000, 4, 1
32039632, 36, 0
32057308, 9, 4
32073964, 25, 16
32092680, 9, 9
32109324, 64, 25
32128052, 0, 9
32144680, 0, 4
32161312, 36, 16
32180024, 64, 9
32197724, 4, 9
32214372, 64, 1
32232028, 100, 25
32251796, 1, 16
32269472, 1, 4
32286120, 49, 1
32303788, 25, 0
32321476, 4, 1
32338124, 1, 16
32355796, 64, 1
32373484, 4, 1
32390116, 4, 0
32406764, 81, 64
32425472, 289, 169
32446272, 256, 36
32466036, 256, 9
32484760, 16, 25
32503476, 49, 4
32521156, 4, 1
32537796, 144, 16
32557560, 9, 49
32575236, 324, 4
32593960, 484, 9
32612680, 49, 0
32630364, 25, 1
32648032, 16, 64
32666764, 196, 196
32687556, 121, 9
32706276, 49, 1
32723940, 196, 4
32742680, 64, 36
32761392, 289, 36
32781164, 81, 100
32800920, 36, 4
32818592, 36, 16
32837312, 25, 4
32854988, 1, 1
32871644, 64, 36
32890356, 16, 0
32908044, 4, 1
32924680, 0, 0
32941316, 25, 1
32959000, 36, 4
32976672, 25, 16
32995400, 400, 9
33014124, 441, 49
33033876, 100, 36
33053632, 4, 0
33070288, 9, 9
33086920, 25, 1
33104596, 169, 0
33123312, 256, 25
33143072, 100, 16
33162832, 1, 0
33179484, 121, 25
33199240, 121, 25
33218996, 64, 4
33236664, 225, 9
33255392, 36, 9
33273072, 81, 0
33290756, 4, 4
33307396, 16, 9
33325088, 0, 9
33341712, 81, 0
33359396, 144, 4
33378108, 16, 16
33396840, 0, 4
33413476, 0, 1
33430116, 4, 4
33446764, 81, 9
33464436, 36, 4
33482112, 0, 0
33498756, 16, 1
33516432, 4, 0
33533080, 4, 16
33550760, 49, 0
33568432, 121, 4
33587144, 0, 0
33603804, 0, 1
33620432, 256, 0
33639160, 324, 9
33657884, 1, 0
33674516, 121, 49
33694280, 9, 9
33710912, 256, 0
33729636, 400, 1
33748352, 4, 9
33764988, 9, 1
33781628, 64, 16
33800356, 144, 0
33819076, 36, 25
33837792, 49, 0
33855464, 121, 1
33874196, 4, 9
33890848, 64, 0
33908512, 25, 9
33926196, 100, 0
33944920, 144, 16
33964672, 1, 25
33982348, 100, 0
34001080, 49, 4
34018756, 25, 4
34036420, 49, 0
34054100, 9, 25
34071804, 25, 4
34089472, 144, 0
34108200, 225, 0
34126920, 225, 0
34145640, 49, 9
34163320, 4, 4
34179956, 121, 1
34198676, 81, 1
34216360, 9, 9
34232996, 100, 4
34251708, 100, 9
34270436, 0, 4
34287080, 4, 1
34303708, 16, 1
34321400, 4, 1
34338032, 1, 0
34354668, 16, 1
34372344, 36, 0
34390036, 81, 9
34407724, 196, 1
34426440, 225, 0
34445144, 900, 49
34464916, 256, 1
34483648, 4, 36
34501312, 196, 4
34520024, 784, 4
34538756, 121, 16
34558512, 16, 9
34576200, 36, 0
34593876, 9, 1
34610528, 0, 4
34627160, 100, 1
34645876, 4, 0
34662516, 36, 4
34680208, 1, 1
34696832, 121, 25
34716580, 144, 25
34736352, 16, 4
34754036, 16, 9
34771720, 16, 1
34789412, 16, 1
34807096, 36, 1
34824756, 144, 16
34844512, 16, 25
34863236, 9, 1
34879880, 64, 0
34897552, 441, 25
34917308, 16, 9
34935008, 16, 9
34952676, 16, 9
34970348, 225, 4
34989092, 64, 1
35006756, 1, 1
35023396, 144, 9
35042120, 225, 4
35060836, 81, 36
35079568, 100, 16
35099316, 0, 36
35116988, 64, 0
35134676, 81, 25
35153396, 9, 1
35170040, 4, 4
35186668, 49, 0
35204364, 100, 1
35223084, 64, 4
35240756, 289, 0
35259476, 121, 0
35278192, 841, 64
35297944, 324, 36
35317716, 1, 4
35334364, 144, 9
35353072, 16, 16
35371796, 25, 16
35390524, 25, 1
35408196, 256, 0
35426924, 100, 49
35446672, 4, 25
35464368, 36, 4
35482024, 25, 0
35499708, 64, 36
35518432, 1, 4
35535080, 49, 0
35552752, 49, 0
35570432, 81, 1
35588128, 36, 4
35605800, 49, 9
35623460, 784, 9
35642192, 841, 25
35661960, 196, 4
35680676, 16, 36
35699400, 1, 9
35716032, 324, 9
35734764, 676, 4
35753476, 36, 1
35771156, 9, 16
35788840, 9, 0
35805488, 49, 1
35823148, 36, 1
35840840, 16, 4
35858520, 0, 0
35875152, 4, 16
35892836, 16, 4
35910512, 36, 0
35928200, 1, 0
35944832, 4, 25
35962512, 0, 9
35979160, 9, 25
35996836, 36, 36
36015560, 1, 4
36032192, 100, 4
36050912, 121, 16
36070680, 1, 0
36087324, 9, 0
36103944, 0, 1
36120592, 16, 9
36138280, 0, 1
36154924, 324, 1
36173624, 324, 9
36192364, 1, 0
36209004, 1, 1
36225632, 16, 0
36243320, 36, 0
36261012, 1, 0
36277644, 81, 0
36295320, 0, 1
36311960, 49, 1
36329644, 49, 0
36347316, 196, 4
36366040, 25, 16
36384744, 16, 0
36402440, 9, 0
36419072, 121, 0
36437800, 16, 0
36455476, 81, 0
36473156, 100, 1
36491888, 100, 1
36510604, 121, 9
36529324, 0, 1
36545964, 9, 4
36562600, 9, 1
36579232, 64, 9
36596920, 1, 9
36613560, 4, 0
36630188, 25, 1
36647872, 64, 9
36665560, 0, 0
36682200, 36, 4
36699876, 25, 0
36717556, 1, 4
36734204, 25, 4
36751868, 36, 1
36769552, 9, 1
36786204, 1, 1
36802848, 4, 1
36819492, 16, 0
36837152, 49, 25
36855888, 1, 36
36873564, 0, 4
36890192, 1, 0
36906840, 0, 0
36923484, 25, 4
36941168, 100, 4
36959876, 4, 0
36976516, 36, 0
36994208, 4, 0
37010836, 64, 4
37028508, 121, 0
37047228, 36, 4
37064916, 144, 25
37084676, 1, 0
37101316, 0, 9
37117948, 0, 0
37134604, 9, 4
37151228, 100, 0
37169952, 25, 16
37188684, 9, 4
37205328, 1, 9
37221964, 4, 16
37239628, 0, 9
37256276, 25, 0
37273956, 256, 4
37292672, 144, 1
37311400, 144, 4
37330124, 256, 25
37349876, 4, 1
37366516, 36, 4
37384200, 36, 1
37401884, 36, 0
37419568, 16, 4
37437236, 16, 1
37454916, 1, 4
37471560, 144, 4
37490272, 121, 16
37510040, 100, 1
37528756, 25, 9
37546436, 25, 4
37564116, 4, 0
37580748, 4, 1
37597404, 9, 1
37614032, 1, 0
37630664, 1, 16
37648340, 16, 1
37666048, 0, 1
37682672, 0, 25
37700352, 81, 9
37718044, 225, 9
37736756, 16, 9
37754440, 81, 49
37773160, 121, 16
37792912, 4, 9
37809552, 0, 1
37826192, 36, 0
37843868, 25, 4
37861568, 1, 1
37878204, 64, 25
37896912, 324, 1
37915620, 144, 4
37934360, 25, 36
37953080, 81, 36
37971792, 144, 1
37990520, 4, 9
38007164, 9, 4
38023796, 81, 9
38041476, 25, 1
38059160, 4, 4
38075804, 64, 1
38093476, 196, 1
38112188, 64, 16
38130912, 81, 9
38148596, 225, 4
38167316, 25, 1
38185000, 49, 0
38202676, 225, 4
38221396, 121, 0
38240112, 4, 0
38256780, 1, 1
38273400, 100, 9
38292128, 289, 100
38312916, 4, 64
38330600, 256, 4
38349312, 144, 16
38369072, 25, 0
38386764, 100, 25
38406512, 324, 64
38426280, 144, 81
38446036, 4, 16
38463716, 81, 4
38481396, 1, 0
38498032, 9, 4
38514676, 36, 16
38533404, 100, 0
38552116, 64, 0
38569800, 169, 0
38588516, 529, 1
38607236, 400, 9
38625956, 81, 9
38643624, 25, 1
38661320, 4, 1
38677952, 256, 4
38696672, 400, 1
38715400, 4, 0
38732044, 484, 16
38751788, 144, 4
38770508, 256, 0
38789240, 961, 25
38808996, 144, 49
38828752, 1, 0
38845376, 4, 9
38862032, 0, 0
38878676, 49, 9
38896360, 36, 4
38914036, 0, 1
38930676, 16, 0
38948356, 225, 0
38967076, 400, 4
38985792, 0, 0
39002432, 169, 100
39023236, 36, 225
39042984, 16, 16
39061720, 169, 4
39080436, 25, 9
39098116, 16, 1
39115800, 100, 1
39134524, 4, 1
39151148, 36, 16
39169868, 289, 25
39189644, 169, 9
39208364, 144, 1
39227076, 169, 81
39246836, 36, 36
39265556, 529, 4
39284272, 961, 121
39305072, 324, 121
39325884, 4, 25
39343552, 289, 25
39363316, 225, 1
39382036, 169, 9
39400764, 900, 16
39420516, 400, 1
39439236, 324, 25
39458992, 441, 0
39477720, 484, 4
39496428, 100, 0
39515160, 9, 4
39531808, 169, 9
39550516, 100, 16
39570272, 81, 4
39587952, 361, 25
39607724, 121, 25
39627480, 25, 1
39645152, 81, 9
39662840, 36, 49
39681560, 16, 16
39700264, 121, 0
39719004, 81, 4
39736684, 225, 0
39755388, 324, 25
39775152, 1, 4
39791808, 1, 0
39808440, 100, 4
39827156, 16, 1
39844820, 9, 25
39862516, 100, 4
39881244, 25, 1
39898916, 1, 9
39915568, 4, 1
39932192, 36, 0
39949884, 36, 4
39967560, 49, 0
39985232, 36, 0
40002912, 0, 0
40019552, 9, 0
40036196, 16, 9
40053888, 144, 4
40072592, 196, 0
40091328, 16, 4
40108992, 16, 16
40127712, 0, 4
40144344, 0, 0
40160992, 144, 49
40180756, 676, 16
40200516, 196, 4
40219232, 0, 9
40235876, 9, 64
40253564, 0, 4
40270200, 0, 0
40286824, 81, 9
40304516, 4, 1
40321164, 16, 1
40338840, 144, 1
40357556, 400, 4
40376272, 144, 25
40396048, 64, 0
40413724, 100, 9
40432436, 64, 4
40450112, 36, 9
40467796, 49, 0
40485472, 324, 0
40504188, 169, 4
40522912, 25, 4
40540596, 16, 9
40558276, 36, 25
40576980, 0, 16
40594684, 64, 4
40612360, 625, 1
40631072, 676, 36
40650844, 81, 9
40668520, 0, 0
40685152, 25, 9
40702832, 81, 25
40721572, 0, 81
40739240, 196, 0
40757948, 324, 9
40776664, 324, 9
40795400, 361, 25
40815152, 100, 9
40833884, 1, 0
40850528, 196, 1
40869248, 121, 1
40887948, 256, 0
40906668, 484, 64
40926440, 1, 25
40944116, 144, 1
40962832, 144, 1
40981564, 4, 9
40998204, 36, 9
41015872, 361, 0
41034596, 169, 0
41053316, 4, 0
41069956, 1, 16
41087628, 9, 16
41105312, 100, 25
41125076, 361, 1
41143796, 196, 4
41162516, 4, 1
41179164, 0, 4
41195800, 9, 9
41212444, 16, 0
41230116, 9, 9
41246760, 16, 1
41264432, 9, 9
41281072, 25, 1
41298756, 169, 1
41317480, 25, 1
41335160, 324, 0
41353880, 36, 0
41371556, 0, 0
41388204, 4, 0
41404848, 1, 1
41421472, 4, 0
41438104, 1, 0
41454760, 1, 0
41471396, 0, 16
41489080, 0, 9
41505716, 0, 16
41523396, 9, 9
41540028, 4, 25
41557724, 1, 16
41575396, 4, 0
41592044, 9, 0
41608676, 49, 1
41626348, 49, 0
41644040, 4, 4
41660676, 25, 0
41678360, 25, 9
41696032, 1, 9
41712676, 0, 9
41729312, 0, 4
41745960, 9, 16
41763632, 4, 4
41780272, 4, 0
41796924, 1, 0
41813564, 9, 64
41831236, 1, 100
41849956, 4, 9
41866596, 0, 1
41883244, 1, 1
41899880, 1, 25
41917556, 0, 9
41934208, 9, 25
41951872, 9, 100
41970588, 0, 121
41989332, 9, 1
42005956, 4, 25
42023636, 1, 9
42040272, 25, 0
42057964, 9, 100
42076676, 9, 121
42095396, 36, 144
42115156, 25, 64
42133872, 25, 64
42152588, 4, 81
42170272, 0, 25
42187960, 0, 0
42204592, 25, 9
42222268, 81, 64
42240984, 25, 4
42258688, 1, 4
42275304, 0, 36
42292988, 0, 25
42310676, 0, 9
42327324, 1, 1
42343964, 16, 49
42362672, 16, 64
42381400, 1, 25
42399080, 16, 1
42416764, 0, 144
42435472, 1, 64
42453160, 1, 4
42469800, 4, 1
42486424, 16, 25
42505148, 49, 169
42524920, 256, 49
42544684, 64, 49
42563396, 0, 49
42581084, 4, 361
42599788, 36, 144
42619548, 16, 16
42638268, 0, 49
42655952, 0, 25
42673628, 64, 81
42692348, 225, 225
42713156, 121, 16
42732924, 9, 25
42750584, 25, 676
42770340, 64, 1089
42791156, 121, 81
42810936, 64, 4
42828600, 0, 169
42847328, 9, 169
42866032, 25, 121
42885796, 16, 1
42903472, 4, 121
42922208, 16, 4
42939872, 36, 361
42959640, 9, 625
42978356, 4, 256
42997084, 25, 169
43016840, 1, 81
43034516, 49, 36
43053236, 36, 100
43072992, 4, 25
43090668, 0, 1
43107308, 1, 121
43126044, 16, 324
43145788, 36, 196
43165552, 49, 100
43185312, 64, 576
43205072, 121, 1089
43226900, 64, 121
43246680, 9, 4
43263316, 4, 25
43281000, 144, 144
43301788, 196, 25
43321564, 9, 9
43338192, 1, 25
43355876, 4, 100
43374584, 36, 64
43393320, 49, 49
43412024, 64, 900
43431788, 196, 1849
43453640, 144, 64
43473388, 36, 100
43493156, 1, 81
43510844, 9, 225
43529560, 64, 441
43549300, 196, 1369
43571144, 169, 1849
43592984, 121, 900
43613792, 169, 256
43634592, 81, 0
43652284, 9, 36
43669948, 9, 1
43686600, 256, 324
43707384, 484, 289
43728200, 25, 36
43746920, 4, 16
43764600, 16, 16
43783320, 1, 16
43801012, 1, 9
43817636, 144, 4
43836340, 400, 25
43856116, 81, 100
43875888, 4, 144
43894588, 16, 49
43913316, 1, 16
43930996, 0, 36
43948672, 1, 0
43965312, 0, 25
43983004, 16, 36
44001712, 16, 9
44019396, 4, 0
44036024, 25, 144
44055812, 9, 1
44072432, 9, 441
44091160, 4, 64
44108848, 36, 36
44127560, 64, 100
44147312, 64, 36
44166028, 49, 9
44183716, 1, 9
44200356, 0, 121
44219076, 0, 64
44236744, 4, 4
44253408, 1, 25
44271068, 49, 121
44290836, 16, 225
44310596, 16, 49
44329328, 36, 1
44347000, 1, 9
44363624, 36, 121
44383396, 16, 100
44403160, 0, 1
44419804, 9, 49
44437468, 9, 81
44455156, 4, 324
44473888, 4, 100
44492588, 36, 9
44510292, 9, 36
44527960, 36, 25
44546664, 25, 64
44565396, 25, 729
44585164, 100, 900
44605944, 81, 4
44623632, 16, 16
44642352, 0, 400
44661072, 4, 1681
44680820, 169, 1225
44702676, 400, 529
44723480, 64, 1
44741164, 9, 169
44759868, 25, 0
44777560, 16, 256
44797316, 36, 81
44816048, 16, 9
44833712, 4, 16
44851400, 0, 4
44868032, 16, 36
44886756, 9, 81
44904424, 16, 64
44923168, 49, 36
44941868, 25, 16
44960588, 16, 4
44978276, 64, 196
44998044, 64, 361
45017792, 16, 36
45036516, 4, 9
45053152, 0, 0
45069792, 0, 9
45086428, 0, 4
45103064, 0, 9
45119728, 0, 121
45138436, 1, 49
45156104, 0, 49
45173796, 4, 1
45190440, 4, 196
45209160, 1, 1
45225804, 1, 100
45244532, 4, 1
45261160, 0, 36
45278832, 9, 25
45296516, 9, 0
45313156, 25, 9
45330844, 36, 100
45350604, 9, 1
45367236, 4, 36
45384924, 0, 4
45401556, 0, 1
45418196, 1, 169
45436916, 25, 484
45456672, 100, 361
45477476, 16, 36
45496208, 16, 256
45515952, 49, 1024
45536756, 100, 841
45557552, 100, 64
45577316, 16, 4
45595004, 0, 9
45611628, 1, 49
45629316, 16, 169
45649076, 64, 49
45667792, 36, 36
45686508, 64, 64
45705248, 64, 36
45723956, 16, 4
45741628, 0, 4
45758268, 4, 9
45774920, 25, 144
45794676, 0, 9
45811316, 0, 1
45827952, 9, 0
45844600, 0, 16
45862276, 4, 25
45879948, 1, 1
45896600, 0, 0
45913252, 4, 9
45929888, 16, 9
45947552, 0, 4
45964180, 9, 16
45981880, 1, 9
45998524, 0, 16
46016196, 4, 324
46034912, 25, 441
46054676, 25, 64
46073396, 9, 0
46090036, 1, 4
46106676, 9, 0
46123324, 4, 9
46139964, 4, 1
46156592, 0, 9
46173244, 9, 1
46189888, 64, 9
46207548, 16, 0
46225232, 0, 36
46242916, 1, 36
46260600, 1, 36
46278280, 0, 9
46294916, 0, 1
46311560, 0, 1
46328200, 1, 0
46344836, 1, 4
46361464, 25, 16
46380208, 16, 144
46399956, 16, 256
46419720, 4, 16
46437400, 0, 1
46454040, 0, 4
46470692, 1, 0
46487320, 4, 1
46503956, 9, 49
46521644, 16, 196
46541396, 9, 81
46559072, 9, 400
46577792, 0, 1849
46597552, 49, 361
46617312, 36, 9
46634984, 4, 1
46651632, 0, 0
46668284, 4, 16
46685960, 4, 169
46704672, 9, 64
46722352, 0, 0
46738988, 0, 4
46755632, 16, 25
46774356, 64, 36
46793084, 9, 64
46810760, 1, 49
46828440, 4, 0
46845076, 0, 0
46861716, 25, 169
46881476, 49, 676
46901224, 169, 324
46922036, 144, 25
46941792, 9, 25
46959472, 0, 81
46977164, 25, 49
46995876, 100, 81
47015636, 25, 4
47033320, 121, 100
47054112, 361, 196
47074916, 169, 100
47095712, 81, 64
47114448, 25, 64
47133152, 1, 81
47150836, 4, 16
47168508, 1, 144
47187240, 1, 49
47204928, 4, 169
47223636, 9, 100
47242368, 9, 0
47259004, 1, 25
47276676, 16, 81
47295388, 16, 16
47314120, 4, 9
47330756, 4, 49
47348436, 25, 64
47367140, 36, 25
47385880, 0, 81
47403564, 16, 196
47423312, 4, 64
47441000, 0, 361
47459716, 4, 256
47478436, 16, 4
47496112, 1, 25
47513796, 36, 100
47533548, 49, 64
47552276, 25, 1
47569964, 0, 0
47586592, 1, 169
47605312, 1, 529
47624036, 25, 16
47642760, 0, 36
47660436, 25, 0
47678124, 0, 49
47695788, 1, 324
47714516, 0, 441
47733236, 9, 144
47751960, 25, 64
47770684, 25, 121
47790436, 49, 4
47808104, 16, 16
47826832, 1, 25
47844516, 0, 36
47862200, 9, 49
47879864, 25, 1369
47900664, 100, 1156
47922524, 121, 25
47942272, 49, 1764
47963068, 576, 1936
47984920, 196, 64
48004676, 1, 121
48023388, 1, 9
48040032, 0, 169
48058768, 0, 4
48075396, 0, 1
48092040, 9, 0
48108684, 4, 49
48126364, 0, 81
48144028, 16, 144
48163792, 49, 121
48183568, 16, 1
48201244, 4, 169
48219956, 36, 289
48239716, 16, 4
48257396, 0, 9
48274024, 4, 289
48292748, 16, 961
48312512, 36, 4
48330192, 4, 676
48348904, 100, 144
48369720, 64, 1
48387400, 4, 9
48404028, 0, 121
48422752, 0, 289
48441472, 36, 36
48460204, 16, 289
48479956, 16, 144
48499704, 16, 4
48517396, 9, 9
48534044, 1, 0
48550672, 0, 1
48567332, 36, 81
48586044, 16, 169
48605800, 16, 4
48623468, 25, 1
48641156, 0, 9
48657792, 9, 36
48675468, 9, 0
48692120, 9, 4
48708768, 1, 1
48725396, 0, 9
48742024, 36, 121
48761792, 81, 484
48781556, 64, 121
48801324, 25, 25
48820036, 0, 1
48836672, 4, 25
48854368, 9, 36
48872028, 9, 16
48889720, 16, 0
48907400, 16, 1
48925080, 9, 1
48941716, 9, 16
48959388, 4, 36
48977080, 25, 1
48994756, 49, 36
49013472, 9, 289
49032180, 9, 81
49049884, 4, 1024
49069628, 25, 289
49089404, 100, 100
49110212, 16, 36
49128912, 16, 1
49146596, 1, 4
49163224, 9, 1
49179884, 16, 0
49197564, 25, 4
49215240, 1, 49
49232916, 0, 121
49251636, 36, 9
49269324, 49, 4
49287000, 1, 64
49304676, 9, 100
49323400, 1, 4
49340028, 9, 4
49356672, 0, 1
49373316, 1, 1
49389956, 4, 1
49406592, 0, 0
49423236, 4, 0
49439880, 0, 1
49456512, 0, 25
49474184, 0, 81
49491868, 1, 0
49508516, 16, 64
49527240, 16, 36
49545960, 1, 16
49563628, 0, 1
49580268, 4, 289
49598996, 4, 729
49617712, 16, 16
49636444, 16, 9
49654128, 0, 9
49670760, 9, 16
49688432, 25, 9
49706124, 0, 9
49722772, 0, 4
49739400, 4, 0
49756028, 0, 4
49772676, 4, 0
49789316, 9, 25
49806992, 4, 64
49824672, 1, 81
49842352, 36, 0
49860036, 9, 121
49878760, 25, 169
49898516, 25, 9
49916200, 1, 256
49934912, 16, 49
49953640, 16, 1
49971320, 4, 0
49987968, 9, 0
50004584, 0, 0
50021232, 16, 1
50038912, 4, 121
50057632, 64, 400
50077400, 81, 0
50095064, 16, 25
50113804, 1, 1
50130440, 16, 25
50149160, 1, 25
50166840, 25, 1
50184528, 1, 4
50201152, 4, 196
50219864, 0, 900
50238604, 36, 121
50258352, 49, 0
50276044, 1, 1
50292660, 4, 36
50310348, 81, 196
50330120, 64, 1444
50350908, 49, 441
50370688, 64, 4
50388356, 4, 25
50406040, 9, 4
50422672, 0, 36
50440352, 4, 4
50456992, 9, 225
50475716, 81, 784
50495460, 49, 25
50514208, 1, 49
50531888, 1, 9
50548512, 16, 81
50567232, 9, 625
50585948, 36, 256
50605712, 25, 25
50624432, 1, 4
50641072, 49, 16
50659792, 9, 25
50677468, 36, 25
50696184, 25, 36
50714920, 0, 36
50732592, 0, 25
50750280, 1, 16
50767960, 16, 0
50785636, 64, 484
50805392, 100, 529
50826192, 81, 25
50844924, 16, 16
50863644, 0, 36
50881320, 64, 36
50900032, 100, 1
50918768, 16, 4
50936444, 4, 9
50953064, 16, 196
50972832, 81, 676
50992596, 9, 1
51009228, 100, 625
51030048, 400, 784
51050832, 529, 529
51071636, 441, 225
51092432, 225, 16
51112208, 64, 9
51129888, 64, 144
51149628, 324, 324
51170436, 144, 196
51191232, 0, 361
51209940, 196, 169
51230764, 81, 36
51249484, 0, 225
51268188, 0, 49
51285868, 0, 144
51304612, 9, 225
51323316, 64, 16
51342040, 4, 0
51358656, 1, 324
51377400, 1, 625
51396112, 144, 841
51416912, 324, 400
51437712, 169, 64
51457476, 16, 81
51476196, 0, 9
51492824, 9, 64
51510524, 9, 4
51527152, 1, 9
51543800, 9, 1
51560432, 1, 0
51577084, 1, 1
51593720, 9, 9
51610360, 16, 36
51629088, 36, 9
51646760, 1, 16
51664428, 121, 64
51684192, 1156, 4
51703956, 2500, 144
51725784, 2025, 81
51746588, 529, 64
51766364, 225, 4
51785072, 225, 4
51803796, 1, 0
51820440, 25, 0
51838116, 676, 16
51857880, 196, 25
51877632, 16, 1
51895324, 529, 9
51914048, 324, 9
51932752, 81, 1
51950432, 144, 4
51969156, 576, 25
51988908, 1600, 81
52009712, 784, 64
52029480, 81, 1
52047160, 16, 4
52064836, 4, 64
52082504, 16, 64
52101240, 0, 1
52117884, 169, 9
52136588, 729, 64
52156344, 324, 121
52177160, 25, 16
52195864, 121, 4
52214576, 5776, 25
52235384, 8836, 289
52257220, 4096, 121
52279068, 3600, 1
52298844, 1225, 121
52320680, 81, 121
52340424, 144, 16
52360180, 196, 81
52379948, 484, 4
52398668, 36, 121
52418424, 6561, 81
52439228, 5625, 961
52461072, 1296, 36
52481856, 2304, 36
52502660, 196, 441
52523460, 225, 100
52544268, 4900, 9
52564032, 10609, 1225
52587940, 13225, 576
52610816, 961, 0
52629532, 13689, 441
52652436, 36, 361
52672184, 64, 0
52689864, 676, 49
52709636, 1849, 81
52730420, 5476, 100
52752272, 7921, 529
52774116, 3481, 225
52795960, 25, 1
52813632, 1764, 1
52833392, 64, 1
52851068, 4356, 1
52870820, 5041, 169
52892656, 784, 196
52913472, 4096, 1
52933232, 8281, 361
52955052, 2025, 169
52976908, 400, 64
52996656, 1369, 16
53017460, 49, 100
53037220, 14884, 169
53060108, 2304, 961
53081948, 4096, 100
53103780, 361, 225
53124588, 729, 324
53145380, 25, 0
53163068, 5929, 361
53184904, 12769, 121
53207788, 441, 36
53227552, 1521, 64
53248352, 10000, 484
53271212, 4761, 441
53293056, 4900, 361
53314900, 9409, 1024
53337784, 8836, 729
53359604, 4225, 225
53381460, 5929, 625
53403304, 3844, 729
53425140, 625, 1
53443864, 9409, 324
53465708, 484, 36
53485472, 9025, 121
53507320, 3136, 225
53529156, 81, 0
53546820, 676, 0
53565556, 1849, 9
53585312, 961, 64
53605064, 9025, 256
53626904, 2704, 324
53648756, 529, 4
53667468, 5929, 169
53689292, 21025, 1444
53713224, 10816, 729
53736112, 3025, 81
53756904, 400, 289
53777712, 225, 36
53797464, 2209, 4
53817208, 5625, 484
53839072, 16641, 961
53861936, 9216, 484
53883780, 3600, 169
53905624, 2500, 196
53927480, 4, 25
53945156, 1156, 225
53967008, 64, 25
53985720, 324, 4
54004428, 961, 100
54025232, 4900, 256
54047088, 900, 16
54066844, 16, 1
54084508, 676, 64
54104264, 6084, 81
54125056, 11025, 324
54147956, 4356, 676
54169808, 9, 9
54186420, 11449, 484
54209304, 15376, 729
54232204, 169, 100
54252988, 1444, 36
54273772, 81, 4
54291464, 144, 4
54310204, 5929, 324
54332020, 7744, 529
54353868, 3721, 144
54375716, 8100, 169
54397556, 13924, 729
54420424, 6241, 361
54442276, 576, 64
54462024, 64, 64
54480760, 576, 0
54499484, 576, 64
54519232, 256, 0
54537956, 64, 16
54556668, 36, 1
54574356, 576, 36
54594112, 841, 169
54614920, 196, 9
54633640, 225, 0
54652336, 2500, 121
54674188, 7569, 256
54696028, 484, 81
54715780, 6889, 64
54736592, 7225, 361
54758436, 1296, 64
54779240, 196, 16
54798996, 16, 9
54816656, 400, 0
54835380, 1369, 81
54856196, 25, 169
54875948, 625, 16
54895716, 9, 36
54913384, 1936, 0
54933152, 12321, 289
54956028, 6084, 625
54977876, 324, 0
54996584, 11025, 256
55019448, 15129, 529
55042348, 4096, 676
55064196, 196, 144
55084984, 625, 9
55103720, 961, 49
55123484, 121, 1
55142200, 2025, 49
55162992, 2401, 64
55183784, 4900, 256
55205632, 5929, 484
55227476, 100, 64
55247236, 5776, 169
55269076, 1369, 49
55289860, 3249, 49
55310676, 12321, 361
55333544, 2916, 289
55355380, 1764, 4
55375148, 5041, 36
55395940, 2916, 225
55417784, 1764, 81
55438584, 4761, 256
55460424, 5776, 676
55482264, 49, 169
55502040, 1024, 16
55522844, 676, 9
55541552, 256, 25
55561320, 324, 36
55581084, 1225, 64
55601868, 1225, 100
55623732, 1849, 16
55644516, 2401, 196
55666352, 1764, 361
55688180, 441, 64
55707968, 100, 4
55726680, 9, 16
55744336, 2916, 64
55765156, 3844, 361
55787008, 0, 9
55803612, 3600, 169
55825472, 5041, 144
55847320, 1764, 196
55869144, 100, 100
55889956, 1369, 49
55910764, 2916, 361
55932588, 0, 9
55949216, 1521, 121
55971076, 784, 49
55990832, 36, 64
56009552, 49, 49
56028288, 441, 9
56046984, 121, 16
56066744, 1849, 144
56088572, 3136, 256
56110440, 2809, 49
56131240, 25, 121
56150988, 121, 1
56169712, 81, 49
56188436, 1369, 16
56209224, 2401, 100
56231080, 196, 81
56250824, 4096, 121
56272672, 1089, 169
56294524, 64, 0
56312200, 0, 9
56328840, 225, 9
56347552, 441, 4
56366280, 36, 0
56383956, 64, 1
56401636, 100, 0
56420348, 49, 4
56438040, 49, 0
56455724, 121, 1
56474436, 9, 0
56491080, 1, 4
56507708, 729, 36
56527476, 324, 81
56547224, 2809, 16
56568024, 7569, 361
56589864, 1225, 196
56611724, 225, 1
56630440, 961, 0
56649144, 1, 0
56665780, 1, 16
56683452, 2209, 81
56704284, 441, 100
56725084, 4, 0
56741712, 196, 1
56760424, 2601, 49
56781224, 5625, 100
56803060, 1521, 81
56823876, 625, 0
56842596, 3136, 81
56863396, 1849, 100
56885232, 256, 16
56904996, 225, 4
56923708, 64, 4
56941384, 676, 16
56961152, 121, 81
56980916, 576, 1
56999648, 484, 9
57018340, 400, 16
57038104, 2601, 81
57058900, 3600, 324
57080752, 324, 81
57100524, 36, 25
57119240, 16, 81
57137944, 64, 0
57155628, 196, 81
57175400, 121, 25
57195156, 4, 64
57212832, 64, 16
57231572, 4, 1
57248188, 1681, 144
57270036, 729, 64
57289792, 256, 16
57309544, 64, 9
57327220, 1600, 49
57348008, 1296, 9
57367784, 2025, 16
57388580, 361, 144
57409384, 64, 4
57427076, 25, 4
57444756, 81, 25
57463472, 3025, 169
57485308, 225, 361
57506124, 81, 9
57523788, 1764, 0
57543540, 14884, 196
57566432, 16641, 576
57589300, 1024, 400
57611156, 1024, 1
57630924, 2601, 81
57651716, 2209, 100
57673548, 1369, 81
57694360, 2116, 64
57715152, 196, 36
57734904, 10404, 196
57757784, 2116, 441
57779624, 1521, 36
57800428, 196, 81
57820204, 7225, 400
57842040, 1764, 225
57863872, 100, 16
57883628, 25, 25
57902340, 3136, 144
57924184, 7396, 64
57944996, 841, 196
57965792, 1369, 1
57985548, 4624, 225
58007396, 961, 121
58028208, 16, 25
58046908, 64, 0
58064596, 1225, 1
58084360, 25, 100
58104108, 81, 1
58121804, 1296, 16
58142580, 225, 196
58163408, 2116, 64
58184192, 225, 121
58204996, 400, 36
58224744, 3969, 36
58245540, 1296, 81
58266348, 4225, 9
58286124, 6400, 289
58307944, 2304, 256
58329788, 1681, 196
58351632, 144, 196
58372440, 81, 0
58390116, 49, 4
58407788, 256, 36
58427556, 625, 144
58448348, 289, 81
58468108, 144, 64
58487876, 576, 16
58507636, 1681, 100
58529472, 25, 25
58548188, 49, 36
58566908, 361, 1
58585636, 484, 0
58604352, 100, 25
58624124, 81, 25
58642840, 9, 16
58660512, 225, 36
58680256, 256, 36
58700032, 196, 0
58718760, 16, 0
58736420, 1369, 49
58757220, 2500, 49
58778032, 25, 1
58795704, 2116, 49
58816504, 169, 25
58836268, 7396, 196
58858108, 4489, 441
58879940, 81, 49
58898680, 169, 0
58917388, 361, 9
58936108, 4900, 49
58956928, 676, 100
58977708, 1444, 25
58998508, 49, 196
59018276, 3025, 9
59038036, 1225, 64
59058832, 49, 16
59077556, 0, 1
59094204, 16, 9
59111876, 64, 36
59130600, 576, 25
59150364, 484, 0
59169076, 841, 25
59188832, 1764, 121
59210656, 36, 4
59228352, 529, 49
59248128, 144, 0
59266840, 225, 0
59285556, 1681, 121
59307384, 1225, 81
59328184, 9, 0
59344828, 225, 1
59363560, 729, 49
59383324, 324, 4
59402024, 0, 0
59418680, 100, 4
59437392, 1369, 4
59457148, 0, 9
59473796, 1296, 16
59494604, 361, 25
59514360, 289, 1
59533072, 1369, 64
59553876, 2209, 144
59575724, 1156, 81
59596508, 36, 36
59615224, 576, 16
59634992, 0, 16
59652668, 144, 1
59671392, 576, 4
59690112, 784, 25
59709856, 3249, 144
59731708, 4900, 441
59753548, 2401, 289
59775396, 1225, 81
59796188, 49, 100
59815956, 25, 0
59833640, 64, 0
59851316, 1, 0
59867960, 49, 1
59885644, 4, 4
59902276, 81, 1
59919956, 2500, 4
59939712, 841, 36
59959488, 49, 9
59977152, 289, 4
59995880, 144, 4
60014584, 100, 0
60033316, 961, 16
60053052, 2601, 100
60074908, 3600, 196
60096760, 4, 64
60114428, 3025, 64
60135236, 900, 81
60155008, 144, 25
60174760, 256, 1
60193464, 361, 16
60213224, 144, 25
60232984, 625, 4
60251708, 1681, 25
60272516, 400, 16
60292284, 4, 49
60309944, 1600, 64
60330740, 961, 64
60350512, 4096, 324
60372364, 25, 36
60391072, 11236, 729
60413928, 26244, 1225
60437872, 6561, 841
60459700, 2401, 256
60481556, 1600, 144
60503384, 1444, 4
60523152, 6241, 289
60544980, 1089, 64
60565800, 400, 1
60584512, 841, 9
60603236, 1, 25
60620916, 1089, 1
60640680, 121, 121
60661464, 225, 9
60680180, 7056, 49
60700984, 5625, 576
60722832, 1, 64
60740500, 1521, 64
60761304, 12996, 196
60784188, 21609, 1296
60808104, 4624, 1156
60831008, 36, 4
60848688, 144, 1
60867404, 36, 9
60885076, 0, 0
60901720, 225, 4
60920424, 1024, 100
60942280, 400, 9
60960988, 169, 81
60980756, 2116, 100
61002596, 256, 49
61022360, 1, 36
61040036, 144, 1
61058748, 1600, 81
61079544, 676, 49
61099300, 4761, 324
61121144, 289, 25
61140896, 6889, 400
61162752, 1764, 121
61184588, 1, 0
61201224, 64, 49
61219960, 529, 4
61238668, 225, 361
61259464, 3844, 49
61280292, 7569, 900
61302112, 16, 16
61320832, 8649, 81
61341632, 1444, 1
61361408, 400, 4
61380124, 441, 9
61398828, 1681, 100
61420668, 2209, 441
61442504, 1296, 9
61462268, 256, 9
61480996, 324, 49
61500748, 529, 81
61520516, 49, 49
61539240, 0, 121
61557956, 400, 0
61576668, 324, 100
61597476, 225, 36
61617236, 4, 49
61634920, 1, 25
61652600, 49, 0
61670280, 64, 16
61689004, 256, 36
61708752, 900, 49
61728504, 256, 4
61747244, 81, 4
61764924, 49, 4
61782592, 49, 4
61800276, 144, 16
61820040, 49, 9
61837720, 1, 0
61854348, 361, 1
61873064, 3481, 16
61893872, 1225, 121
61915720, 361, 1
61934424, 729, 81
61954204, 100, 25
61973952, 9, 36
61991624, 144, 25
62011400, 0, 1
62028040, 0, 4
62044676, 64, 1
62062364, 16, 4
62080056, 1, 4
62096680, 64, 4
62114360, 9, 1
62130992, 16, 0
62148684, 4, 1
62165328, 49, 1
62183000, 169, 4
62201712, 4, 0
62218372, 4, 0
62235000, 25, 4
62252684, 1, 9
62269316, 1, 0
62285956, 36, 4
62303640, 0, 0
62320272, 16, 36
62338992, 16, 16
62357716, 36, 36
62376436, 0, 16
62394116, 9, 0
62410760, 9, 1
62427400, 4, 0
62444036, 16, 1
62461716, 4, 9
62478364, 25, 0
62496048, 4, 0
62512684, 9, 1
62529316, 4, 1
62545964, 9, 0
62562608, 4, 1
62579248, 1, 1
62595884, 16, 1
62613556, 0, 0
62630196, 0, 0
62646832, 1, 0
62663468, 4, 0
62680120, 0, 16
62697800, 4, 16
62715480, 9, 9
62732116, 0, 0
62748764, 1, 16
62766444, 0, 0
62783076, 64, 4
62800760, 1, 16
62818436, 36, 4
62836120, 1, 4
62852752, 1, 4
62869396, 0, 1
62886040, 16, 16
62904756, 1, 16
62922432, 0, 9
62939076, 4, 36
62956756, 1, 16
62974444, 1, 4
62991072, 1, 0
63007712, 16, 9
63025404, 0, 9
63042040, 4, 4
63058688, 16, 9
63076364, 4, 1
63093004, 25, 4
63110676, 16, 4
63128356, 0, 0
63145000, 4, 0
63161640, 4, 1
63178280, 9, 9
63194920, 0, 1
63211556, 81, 1
63229244, 144, 1
63247952, 36, 0
63265632, 4, 0
63282284, 0, 1
63298924, 4, 4
63315560, 16, 9
63333232, 0, 1
63349876, 9, 1
63366524, 16, 1
63384204, 1, 1
63400832, 4, 0
63417480, 0, 9
63434132, 4, 0
63450760, 4, 0
63467396, 0, 4
63484040, 16, 0
63501716, 0, 4
63518356, 0, 4
63534996, 4, 0
63551636, 0, 0
63568284, 1, 1
63584908, 0, 4
63601556, 1, 1
63618200, 81, 1
63635880, 100, 1
63654592, 9, 1
63671220, 0, 0
63687884, 1, 1
63704516, 0, 9
63721152, 36, 1
63738832, 49, 4
63756524, 4, 0
63773160, 4, 1
63789796, 9, 1
63806428, 36, 9
63824124, 0, 1
63840752, 25, 0
63858432, 49, 4
63876124, 4, 1
63892772, 4, 0
63909404, 0, 4
63926036, 1, 4
63942684, 4, 4
63959320, 0, 0
63975976, 9, 4
63992600, 0, 0
64009240, 4, 1
64025884, 0, 9
64042520, 16, 0
64060188, 4, 0
64076840, 25, 1
64094516, 0, 0
64111144, 0, 1
64127796, 9, 4
64144452, 25, 1
64162116, 0, 0
64178760, 1, 0
64195404, 1, 1
64212048, 4, 0
64228672, 0, 0
64245320, 16, 16
64264032, 0, 4
64280676, 4, 1
64297324, 4, 1
64313964, 0, 0
64330600, 1, 9
64347236, 1, 0
64363888, 9, 1
64380504, 25, 0
64398200, 1, 0
64414836, 4, 4
64431472, 1, 0
64448104, 9, 0
64464756, 81, 0
64482436, 25, 1
64500120, 9, 1
64516756, 16, 4
64534436, 0, 0
64551088, 1, 0
64567728, 16, 1
64585400, 16, 9
64603076, 4, 0
64619724, 9, 0
64636352, 0, 9
64653008, 4, 1
64669632, 9, 0
64686276, 0, 4
64702916, 9, 0
64719552, 9, 0
64736188, 36, 1
64753884, 9, 0
64770524, 1, 0
64787156, 36, 9
64804832, 16, 9
64822524, 1, 0
64839156, 16, 0
64856836, 25, 4
64874532, 4, 1
64891160, 9, 4
64907804, 9, 0
64924436, 0, 16
64942116, 49, 1
64959800, 4, 1
64976428, 0, 0
64993072, 0, 4
65009724, 16, 1
65027396, 9, 4
65044024, 49, 0
65061716, 9, 4
65078364, 9, 0
65095004, 1, 1
65111644, 25, 1
65129320, 9, 0
65145956, 49, 4
65163648, 49, 9
65181316, 0, 0
65197952, 0, 0
65214596, 4, 0
65231236, 1, 4
65247876, 9, 0
65264512, 1, 4
65281156, 1, 1
65297796, 0, 1
65314424, 1, 0
65331080, 1, 1
65347724, 9, 0
65364356, 4, 4
65380996, 0, 0
65397636, 9, 4
65414276, 1, 4
65430920, 4, 1
65447544, 0, 0
65464192, 4, 0
65480848, 4, 4
65497472, 16, 0
65515148, 25, 4
65532824, 1, 0
65549484, 9, 1
65566124, 25, 16
65584832, 0, 49
65602512, 36, 1
65620208, 16, 1
65637876, 0, 0
65654508, 1, 0
65671144, 0, 4
65687792, 1, 0
65704436, 0, 1
65721076, 36, 4
65738748, 16, 0
65756444, 4, 0
65773080, 1, 4
65789724, 4, 4
65806356, 0, 1
65822992, 1, 0
65839648, 49, 1
65857320, 25, 4
65875008, 9, 0
65891648, 16, 1
65909316, 0, 4
65925948, 0, 1
65942596, 0, 1
65959236, 1, 0
65975872, 9, 0
65992524, 9, 0
66009164, 1, 0
66025804, 1, 1
66042432, 4, 9
66059076, 4, 0
66075716, 1, 0
66092364, 0, 4
66109000, 1, 0
66125632, 16, 1
66143324, 9, 16
66161004, 0, 0
66177636, 4, 1
66194268, 0, 4
66210924, 0, 0
66227560, 9, 0
66244196, 0, 1
66260824, 0, 9
66277472, 4, 0
66294116, 1, 0
66310756, 0, 4
66327400, 0, 9
66344036, 4, 4
66360688, 9, 4
66377304, 9, 0
66393960, 9, 0
66410604, 0, 1
66427240, 0, 0
66443872, 1, 1
66460504, 0, 9
66477164, 4, 1
66493800, 4, 0
66510432, 16, 4
66528108, 0, 0
66544764, 4, 1
66561404, 1, 4
66578044, 4, 0
66594676, 9, 0
66611332, 9, 1
66627968, 1, 0
66644604, 49, 1
66662276, 16, 16
66681000, 0, 0
66697644, 1, 1
66714276, 4, 1
66730916, 0, 9
66747556, 25, 0
66765228, 0, 0
66781872, 0, 0
66798504, 1, 0
66815156, 4, 1
66831800, 9, 1
66848432, 25, 0
66866112, 16, 1
66883792, 0, 0
66900428, 4, 1
66917076, 0, 1
66933700, 9, 0
66950360, 16, 1
66968036, 0, 1
66984668, 0, 4
67001304, 0, 1
67017964, 1, 4
67034596, 1, 1
67051228, 0, 4
67067872, 0, 0
67084528, 9, 1
67101156, 1, 0
67117796, 1, 4
67134432, 36, 0
67152120, 81, 9
67169796, 1, 0
67186440, 9, 0
67203068, 36, 1
67220752, 9, 0
67237408, 0, 1
67254036, 36, 4
67271728, 1, 4
67288356, 9, 16
67306028, 1, 9
67322676, 4, 9
67339328, 9, 16
67357004, 1, 0
67373640, 4, 0
67390272, 0, 4
67406916, 4, 0
67423556, 0, 1
67440196, 0, 1
67456836, 16, 0
67474524, 4, 1
67491164, 4, 1
67507800, 0, 1
67524432, 36, 0
67542116, 25, 1
67559796, 16, 4
67577472, 9, 9
67594112, 1, 0
67610760, 0, 0
67627400, 16, 4
67645076, 9, 0
67661716, 4, 1
67678368, 4, 25
67696036, 0, 4
67712676, 9, 4
67729312, 9, 9
67745956, 1, 0
67762600, 4, 1
67779240, 1, 1
67795872, 1, 4
67812524, 9, 0
67829152, 4, 0
67845792, 0, 1
67862432, 4, 0
67879084, 4, 0
67895720, 36, 16
67914424, 4, 16
67932100, 9, 4
67948764, 0, 4
67965404, 36, 1
67983072, 4, 0
67999700, 0, 1
68016376, 1, 1
68033000, 16, 0
68050680, 0, 0
68067316, 9, 0
68083972, 4, 9
68100592, 9, 0
68117236, 4, 1
68133872, 1, 1
68150512, 1, 0
68167160, 1, 4
68183792, 9, 1
68200424, 0, 1
68217076, 0, 0
68233712, 1, 0
68250344, 9, 0
68266988, 4, 1
68283648, 4, 0
68300264, 81, 9
68317952, 25, 16
68336680, 0, 0
68353332, 0, 0
68369968, 9, 1
68386592, 0, 9
68403240, 16, 0
68420920, 4, 1
68437552, 4, 0
68454196, 9, 4
68470836, 0, 0
68487480, 0, 1
68504120, 4, 1
68520748, 0, 9
68537396, 0, 1
68554036, 0, 4
68570668, 16, 0
68588364, 16, 1
68606052, 4, 0
68622680, 4, 0
68639312, 4, 1
68655948, 25, 9
68673636, 4, 1
68690288, 1, 4
68706924, 1, 1
68723560, 9, 0
68740196, 1, 1
68756832, 1, 0
68773468, 0, 1
68790116, 16, 9
68807800, 1, 9
68824456, 0, 1
68841080, 16, 0
68858756, 0, 0
68875412, 4, 0
68892044, 9, 9
68908680, 4, 0
68925316, 49, 25
68944040, 1, 1
68960676, 0, 1
68977312, 1, 4
68993948, 16, 25
69012676, 16, 25
69031396, 16, 1
69049072, 0, 9
69065708, 9, 4
69082356, 1, 0
69099000, 4, 0
69115636, 0, 1
69132268, 16, 9
69149964, 4, 9
69166584, 1, 0
69183236, 9, 4
69199880, 0, 1
69216516, 9, 1
69233152, 16, 9
69250840, 0, 1
69267476, 0, 0
69284120, 9, 4
69300764, 0, 0
69317392, 1, 0
69334032, 25, 9
69351712, 9, 0
69368364, 16, 0
69386036, 9, 0
69402680, 0, 1
69419332, 1, 4
69435960, 36, 1
69453636, 25, 1
69471324, 9, 1
69487960, 4, 0
69504600, 1, 9
69521240, 1, 1
69537884, 4, 1
69554524, 9, 4
69571152, 16, 0
69588836, 0, 0
69605484, 1, 1
69622120, 9, 0
69638756, 1, 0
69655392, 4, 1
69672032, 1, 4
69688668, 16, 0
69706360, 9, 1
69722992, 0, 0
69739640, 0, 1
69756280, 4, 0
69772912, 64, 9
69790596, 100, 4
69809312, 36, 0
69827000, 1, 9
69843636, 36, 9
69861312, 1, 0
69877952, 16, 0
69895632, 1, 0
69912276, 1, 1
69928912, 0, 0
69945560, 0, 0
69962208, 1, 1
69978840, 1, 0
69995468, 4, 0
70012124, 25, 4
70029796, 4, 0
70046432, 0, 0
70063068, 0, 4
70079728, 25, 0
70097396, 0, 1
70114032, 4, 0
70130668, 1, 0
70147328, 25, 0
70164992, 64, 4
70182676, 9, 1
70199328, 4, 0
70215960, 1, 1
70232604, 0, 4
70249244, 4, 0
70265884, 9, 0
70282520, 4, 4
70299160, 4, 1
70315796, 1, 4
70332436, 9, 0
70349084, 4, 4
70365728, 4, 1
70382360, 1, 4
70399000, 4, 0
70415648, 9, 4
70432292, 25, 16
70450996, 4, 9
70467648, 16, 16
70486364, 4, 9
70502992, 0, 0
70519640, 1, 0
70536284, 1, 1
70552912, 4, 4
70569556, 1, 0
70586196, 25, 1
70603884, 0, 4
70620516, 25, 1
70638192, 0, 0
70654836, 4, 1
70671484, 9, 9
70688116, 16, 1
70705792, 4, 1
70722432, 0, 0
70739076, 0, 4
70755724, 9, 4
70772348, 16, 1
70790032, 1, 0
70806684, 9, 1
70823320, 0, 1
70839964, 1, 9
70856592, 4, 1
70873232, 0, 0
70889896, 9, 4
70906520, 1, 1
70923160, 1, 4
70939804, 0, 0
70956436, 1, 0
70973076, 4, 1
70989716, 9, 16
71007404, 0, 0
71024048, 1, 0
71040680, 4, 16
71058352, 1, 1
71075000, 4, 1
71091632, 0, 4
71108260, 0, 0
71124900, 9, 0
71141556, 9, 0
71158196, 1, 0
71174836, 16, 1
71192512, 4, 1
71209172, 1, 1
71225792, 1, 0
71242436, 0, 1
71259080, 1, 4
71275728, 25, 4
71293404, 4, 0
71310044, 1, 1
71326668, 1, 0
71343320, 4, 1
71359952, 25, 1
71377632, 16, 4
71395312, 16, 1
71412992, 0, 0
71429628, 4, 9
71446276, 4, 4
71462920, 4, 4
71479560, 64, 9
71497240, 25, 0
71514916, 9, 0
71531552, 0, 0
71548192, 9, 0
71564836, 0, 1
71581472, 0, 1
71598124, 9, 0
71614772, 0, 1
71631400, 0, 1
71648028, 0, 4
71664676, 9, 1
71681332, 0, 1
71697968, 9, 4
71714600, 1, 1
71731236, 16, 0
71748916, 36, 0
71766592, 25, 0
71784276, 1, 0
71800924, 0, 0
71817560, 1, 9
71834196, 16, 0
71851876, 1, 4
71868520, 1, 9
71885160, 25, 1
71902832, 9, 0
71919472, 4, 16
71937172, 1, 1
71953808, 4, 0
71970436, 1, 4
71987072, 0, 0
72003716, 16, 0
72021400, 36, 4
72039080, 1, 1
72055712, 0, 0
72072356, 4, 0
72088992, 25, 4
72106668, 25, 1
72124348, 36, 1
72142044, 1, 0
72158688, 0, 1
72175316, 4, 0
72191948, 1, 0
72208596, 0, 4
72225236, 16, 1
72242920, 16, 4
72260596, 0, 0
72277236, 1, 0
72293880, 1, 1
72310512, 0, 0
72327148, 4, 4
72343808, 4, 0
72360428, 25, 0
72378112, 16, 0
72395800, 9, 1
72412444, 4, 0
72429088, 4, 1
72445712, 49, 0
72463396, 25, 0
72481080, 9, 4
72497712, 16, 9
72515400, 0, 4
72532040, 9, 1
72548672, 4, 0
72565304, 0, 0
72581956, 16, 1
72599644, 4, 9
72616284, 1, 0
72632908, 0, 0
72649548, 16, 0
72667236, 100, 9
72685964, 25, 4
72703628, 4, 1
72720288, 1, 0
72736924, 9, 4
72753560, 196, 1
72772288, 49, 9
72789956, 36, 1
72807644, 25, 16
72826352, 1, 1
72842984, 9, 0
72859624, 9, 0
72876280, 9, 0
72892912, 64, 4
72910592, 16, 1
72928284, 1, 0
72944928, 0, 1
72961564, 25, 4
72979240, 0, 1
72995884, 16, 1
73013560, 4, 0
73030200, 36, 1
73047876, 36, 9
73065564, 0, 1
73082192, 1, 0
73098832, 0, 0
73115480, 1, 4
73132116, 9, 0
73148760, 1, 0
73165392, 9, 0
73182036, 0, 4
73198684, 0, 0
73215320, 1, 1
73231952, 0, 0
73248592, 1, 0
73265232, 4, 0
73281888, 4, 1
73298520, 0, 0
73315152, 0, 1
73331800, 49, 1
73349472, 4, 0
73366116, 4, 1
73382752, 0, 0
73399400, 0, 0
73416040, 16, 4
73433720, 0, 0
73450352, 9, 0
73466992, 4, 0
73483636, 4, 1
73500272, 0, 0
73516916, 0, 1
73533560, 0, 0
73550200, 16, 1
73567872, 0, 0
73584520, 9, 9
73601168, 0, 1
73617796, 0, 0
73634436, 0, 1
73651076, 0, 1
73667720, 0, 1
73684360, 4, 9
73700996, 4, 0
73717640, 1, 0
73734284, 1, 4
73750924, 4, 0
73767544, 0, 0
73784196, 9, 4
73800848, 1, 0
73817484, 4, 1
73834120, 1, 0
73850764, 9, 1
73867396, 4, 0
73884044, 9, 4
73900680, 0, 1
73917312, 0, 1
73933964, 0, 1
73950600, 9, 0
73967232, 0, 0
73983868, 16, 9
74001556, 25, 1
74019236, 9, 4
74035872, 0, 4
74052516, 1, 1
74069156, 4, 0
74085792, 9, 0
74102432, 0, 0
74119072, 4, 1
74135720, 1, 4
74152360, 0, 1
74168996, 1, 0
74185628, 1, 1
74202272, 0, 1
74218916, 9, 4
74235560, 1, 4
74252200, 1, 0
74268860, 1, 1
74285484, 0, 4
74302116, 4, 0
74318748, 1, 0
74335400, 1, 0
74352044, 1, 0
74368680, 1, 0
74385304, 0, 0
74401964, 4, 4
74418604, 1, 0
74435232, 0, 1
74451872, 1, 1
74468516, 1, 0
74485168, 0, 0
74501808, 4, 9
74518428, 1, 0
74535088, 0, 1
74551732, 4, 0
74568360, 1, 4
74584984, 0, 4
74601636, 4, 1
74618276, 0, 4
74634924, 1, 9
74651556, 1, 0
74668200, 0, 1
74684840, 0, 0
74701472, 1, 0
74718108, 1, 9
74734760, 0, 4
74751400, 4, 0
74768036, 1, 0
74784668, 0, 0
74801320, 1, 4
74817964, 1, 0
74834600, 1, 0
74851232, 1, 0
74867876, 1, 0
74884528, 1, 0
74901152, 4, 1
74917788, 1, 1
74934440, 1, 0
74951088, 1, 0
74967716, 1, 0
74984344, 0, 0
75000996, 1, 1
75017640, 4, 0
75034268, 1, 4
75050916, 9, 0
75067568, 1, 0
75084196, 0, 1
75100836, 4, 4
75117468, 1, 0
75134124, 0, 1
75150772, 1, 1
75167396, 1, 0
75184024, 0, 0
75200676, 4, 9
75217324, 1, 0
75233956, 0, 1
75250596, 4, 0
75267244, 0, 0
75283876, 4, 0
75300504, 4, 1
75317152, 1, 1
75333800, 0, 0
75350452, 4, 1
75367084, 0, 1
75383704, 0, 0
75400352, 4, 1
75416996, 1, 0
75433628, 0, 0
75450276, 1, 1
75466924, 1, 0
75483560, 1, 0
75500188, 16, 16
75518912, 1, 16
75536608, 0, 9
75553240, 4, 0
75569888, 4, 1
75586504, 4, 1
75603156, 4, 1
75619792, 1, 0
75636440, 4, 1
75653076, 1, 0
75669720, 9, 4
75686352, 0, 0
75702996, 0, 0
75719620, 4, 1
75736284, 1, 0
75752920, 4, 0
75769564, 1, 1
75786184, 1, 0
75802844, 1, 1
75819472, 0, 0
75836108, 9, 0
75852760, 9, 1
75869412, 1, 4
75886036, 0, 0
75902664, 0, 1
75919312, 0, 0
75935964, 9, 4
75952588, 9, 1
75969232, 9, 0
75985868, 16, 4
76003556, 0, 0
76020196, 4, 9
76036836, 4, 0
76053468, 0, 0
76070124, 4, 1
76086752, 1, 4
76103396, 1, 0
76120028, 9, 4
76136680, 0, 1
76153312, 4, 0
76169960, 9, 4
76186588, 0, 0
76203248, 1, 0
76219884, 1, 4
76236516, 9, 0
76253144, 4, 0
76269800, 16, 16
76288516, 0, 1
76305160, 1, 0
76321788, 0, 0
76338444, 1, 1
76355076, 0, 0
76371720, 1, 0
76388364, 9, 9
76405008, 0, 0
76421632, 1, 0
76438268, 4, 1
76454900, 0, 0
76471564, 0, 0
76488204, 0, 4
76504840, 1, 4
76521460, 0, 1
76538116, 4, 1
76554752, 0, 0
76571388, 0, 0
76588028, 1, 0
76604676, 4, 4
76621312, 0, 0
76637960, 9, 1
76654596, 1, 0
76671252, 9, 1
76687880, 36, 9
76705556, 4, 0
76722200, 1, 0
76738832, 4, 0
76755484, 1, 1
76772112, 1, 0
76788764, 4, 9
76805408, 1, 0
76822032, 4, 0
76838672, 1, 4
76855312, 0, 0
76871956, 1, 4
76888612, 4, 16
76906280, 0, 0
76922928, 36, 1
76940600, 81, 4
76958272, 4, 0
76974916, 4, 0
76991560, 1, 0
77008212, 1, 4
77024836, 1, 0
77041480, 1, 4
77058124, 9, 1
77074756, 0, 1
77091392, 16, 1
77109084, 36, 9
77126760, 0, 1
77143404, 9, 4
77160036, 9, 4
77176676, 0, 0
77193328, 9, 1
77209960, 1, 1
77226604, 9, 1
77243240, 1, 0
77259884, 0, 0
77276528, 1, 4
77293156, 0, 0
77309800, 0, 0
77326448, 4, 1
77343080, 1, 0
77359716, 4, 1
77376356, 16, 4
77394040, 0, 0
77410676, 1, 0
77427328, 4, 1
77443960, 1, 0
77460592, 0, 0
77477232, 0, 4
77493872, 1, 0
77510520, 4, 1
77527164, 16, 4
77544852, 1, 0
77561480, 4, 1
77578112, 1, 0
77594760, 16, 9
77612444, 0, 4
77629072, 0, 1
77645724, 4, 9
77662360, 0, 0
77679004, 9, 1
77695640, 16, 4
77713304, 0, 4
77729956, 4, 16
77747648, 16, 9
77765324, 9, 0
77781948, 36, 4
77799644, 1, 9
77816272, 1, 0
77832908, 0, 1
77849544, 16, 0
77867244, 9, 4
77883872, 0, 0
77900516, 4, 0
77917148, 1, 0
77933804, 1, 1
77950436, 25, 4
77968128, 25, 4
77985800, 4, 0
78002452, 1, 4
78019080, 1, 4
78035716, 9, 1
78052348, 0, 0
78069008, 4, 1
78085644, 9, 4
78102272, 4, 0
78118908, 1, 0
78135560, 1, 0
78152188, 0, 1
78168840, 1, 0
78185484, 4, 1
78202132, 0, 1
78218756, 9, 0
78235396, 25, 9
78253080, 1, 4
78269720, 4, 1
78286368, 4, 1
78302992, 0, 1
78319644, 9, 0
78336288, 1, 1
78352932, 9, 1
78369552, 0, 0
78386204, 1, 1
78402852, 1, 1
78419480, 9, 0
78436112, 4, 4
78452760, 1, 0
78469392, 0, 0
78486044, 0, 1
78502684, 1, 1
78519312, 1, 0
78535952, 0, 0
78552600, 1, 0
78569236, 4, 1
78585892, 1, 4
78602528, 1, 0
78619164, 4, 0
78635792, 1, 0
78652436, 4, 4
78669076, 0, 0
78685732, 0, 1
78702360, 4, 0
78718992, 0, 0
78735644, 1, 1
78752272, 0, 1
78768904, 1, 1
78785560, 1, 1
78802204, 16, 1
78819880, 0, 1
78836516, 0, 9
78853152, 0, 9
78869808, 4, 1
78886448, 0, 0
78903072, 9, 4
78919716, 0, 0
78936360, 1, 0
78953004, 1, 4
78969636, 4, 0
78986292, 0, 0
79002924, 16, 4
79020588, 0, 0
79037228, 4, 1
79053872, 4, 1
79070524, 1, 1
79087148, 0, 0
79103800, 0, 1
79120448, 4, 0
79137080, 1, 0
79153708, 16, 1
79171388, 1, 0
79188036, 9, 4
79204676, 1, 0
79221320, 1, 0
79237956, 1, 0
79254600, 0, 0
79271240, 4, 0
79287876, 1, 1
79304520, 0, 1
79321160, 9, 1
79337804, 0, 0
79354424, 4, 0
79371076, 25, 4
79388756, 0, 1
79405408, 1, 0
79422040, 9, 9
79438668, 0, 0
79455316, 0, 0
79471952, 0, 4
79488596, 1, 1
79505232, 0, 0
79521888, 9, 4
79538516, 0, 0
79555152, 1, 0
79571784, 9, 4
79588436, 0, 0
79605080, 4, 0
79621724, 9, 1
79638356, 1, 0
79655000, 1, 0
79671636, 4, 4
79688268, 0, 0
79704912, 0, 1
79721564, 1, 4
79738200, 1, 0
79754832, 0, 0
79771476, 4, 1
79788120, 1, 0
79804768, 4, 0
79821408, 9, 4
79838040, 1, 0
79854676, 0, 0
79871320, 4, 4
79887952, 0, 0
79904588, 0, 0
79921252, 4, 4
79937880, 1, 0
79954508, 0, 0
79971152, 4, 9
79987800, 0, 0
80004440, 1, 0
80021076, 4, 4
80037712, 0, 0
80054356, 1, 0
80071000, 9, 4
80087636, 4, 1
80104272, 0, 0
80120924, 4, 1
80137564, 1, 0
80154200, 4, 1
80170836, 16, 9
80188520, 0, 1
80205156, 1, 1
80221800, 1, 1
80238440, 1, 0
80255076, 1, 0
80271720, 1, 0
80288356, 4, 1
80304984, 1, 0
80321640, 9, 4
80338280, 0, 0
80354916, 9, 1
80371544, 4, 9
80388192, 0, 0
80404832, 9, 0
80421484, 1, 1
80438120, 1, 0
80454764, 1, 0
80471400, 1, 0
80488032, 1, 0
80504680, 1, 1
80521324, 0, 1
80537976, 1, 1
80554592, 4, 0
80571236, 1, 1
80587884, 0, 4
80604520, 1, 0
80621160, 4, 4
80637800, 0, 0
80654436, 1, 1
80671072, 1, 1
80687708, 0, 0
80704360, 4, 1
80721012, 1, 0
80737652, 4, 1
80754268, 0, 0
80770912, 1, 0
80787560, 1, 0
80804208, 0, 1
80820844, 0, 1
80837480, 0, 1
80854124, 9, 1
80870756, 0, 1
80887388, 0, 1
80904036, 9, 0
80920680, 4, 0
80937328, 1, 1
80953960, 9, 1
80970592, 4, 1
80987236, 0, 1
81003876, 1, 0
81020512, 0, 0
81037160, 9, 4
81053804, 1, 0
81070436, 0, 0
81087076, 1, 1
81103716, 0, 0
81120356, 1, 0
81137016, 4, 1
81153644, 4, 1
81170264, 0, 0
81186924, 1, 4
81203564, 1, 0
81220200, 1, 1
81236844, 0, 1
81253484, 1, 0
81270116, 0, 1
81286748, 0, 1
81303392, 9, 0
81320056, 4, 1
81336692, 0, 1
81353320, 16, 1
81371000, 1, 4
81387656, 4, 0
81404284, 1, 0
81420920, 1, 0
81437564, 4, 4
81454196, 0, 0
81470836, 4, 0
81487480, 9, 9
81504116, 1, 0
81520760, 0, 0
81537396, 4, 16
81555068, 0, 9
81571704, 0, 4
81588356, 0, 4
81605008, 4, 1
81621636, 1, 0
81638288, 9, 9
81654924, 1, 0
81671564, 4, 0
81688192, 9, 1
81704836, 1, 0
81721476, 0, 0
81738128, 1, 1
81754760, 0, 0
81771396, 9, 0
81788032, 9, 1
81804672, 0, 0
81821316, 4, 1
81837968, 4, 1
81854608, 0, 0
81871248, 16, 1
81888908, 16, 1
81906592, 0, 1
81923244, 0, 1
81939880, 0, 1
81956512, 0, 4
81973148, 9, 0
81989792, 0, 0
82006432, 1, 0
82023076, 4, 4
82039716, 0, 1
82056372, 4, 1
82072996, 0, 0
82089636, 4, 0
82106268, 36, 4
82123964, 1, 9
82140596, 0, 9
82157232, 1, 1
82173868, 0, 0
82190528, 9, 1
82207144, 9, 9
82223792, 0, 0
82240428, 4, 1
82257080, 0, 16
82274760, 4, 4
82291400, 1, 0
82308032, 4, 0
82324680, 81, 9
82342356, 1, 0
82358992, 1, 0
82375628, 0, 4
82392280, 9, 0
82408912, 1, 0
82425552, 0, 0
82442192, 9, 1
82458844, 0, 0
82475476, 16, 9
82493160, 9, 1
82509788, 16, 4
82527472, 9, 4
82544112, 1, 0
82560748, 4, 1
82577400, 1, 1
82594048, 9, 1
82610676, 0, 0
82627312, 0, 0
82643964, 0, 1
82660604, 16, 0
82678272, 1, 0
82694928, 9, 1
82711548, 0, 1
82728192, 0, 0
82744836, 1, 9
82761476, 16, 0
82779160, 0, 0
82795800, 4, 9
82812436, 0, 1
82829072, 0, 1
82845712, 0, 4
82862360, 1, 0
82879004, 4, 0
82895644, 9, 1
82912288, 0, 4
82928924, 4, 0
82945564, 0, 0
82962196, 9, 4
82978840, 0, 1
82995480, 1, 9
83012128, 1, 0
83028756, 1, 0
83045396, 0, 1
83062036, 0, 1
83078684, 4, 1
83095308, 0, 25
83112996, 1, 25
83130680, 0, 9
83147320, 4, 0
83163952, 4, 9
83180600, 0, 1
83197236, 1, 0
83213884, 1, 1
83230520, 1, 0
83247168, 1, 1
83263800, 1, 4
83280424, 0, 0
83297068, 4, 0
83313724, 4, 9
83330360, 1, 0
83346984, 0, 0
83363632, 4, 9
83380288, 1, 1
83396920, 1, 4
83413560, 1, 9
83430188, 1, 1
83446844, 9, 0
83463480, 9, 16
83481156, 0, 1
83497792, 9, 1
83514440, 9, 9
83531076, 1, 0
83547716, 1, 0
83564356, 1, 1
83581000, 0, 1
83597632, 0, 0
83614276, 1, 4
83630924, 1, 4
83647560, 1, 1
83664200, 1, 0
83680828, 0, 0
83697468, 4, 1
83714132, 1, 1
83730772, 1, 1
83747396, 4, 0
83764028, 1, 1
83780688, 1, 9
83797316, 4, 1
83813952, 4, 0
83830596, 0, 1
83847232, 1, 0
83863876, 0, 1
83880508, 1, 0
83897156, 4, 1
83913800, 4, 1
83930448, 1, 0
83947080, 1, 1
83963716, 1, 4
83980352, 0, 0
83996996, 0, 0
84013644, 9, 1
84030268, 9, 49
84047960, 16, 25
84066672, 81, 9
84084356, 36, 9
84102044, 1, 0
84118684, 16, 1
84136360, 9, 0
84153004, 0, 1
84169632, 4, 1
84186280, 1, 1
84202912, 0, 0
84219556, 1, 1
84236188, 4, 0
84252840, 0, 4
84269492, 0, 0
84286116, 49, 0
84303780, 25, 1
84321480, 1, 0
84338112, 1, 0
84354748, 9, 0
84371400, 9, 4
84388048, 1, 4
84404676, 1, 1
84421316, 16, 0
84438988, 0, 1
84455644, 1, 1
84472276, 0, 4
84488920, 4, 0
84505548, 1, 9
84522204, 1, 16
84539880, 4, 0
84556508, 0, 1
84573156, 1, 1
84589800, 36, 1
84607476, 4, 1
84624116, 1, 1
84640744, 16, 1
84658432, 16, 0
84676124, 9, 0
84692760, 1, 0
84709416, 16, 1
84727080, 0, 1
84743728, 0, 1
84760356, 4, 9
84777000, 1, 0
84793636, 0, 0
84810288, 1, 9
84826912, 4, 0
84843552, 0, 0
84860204, 4, 9
84876840, 4, 0
84893476, 0, 1
84910120, 16, 0
84927808, 1, 4
84944436, 1, 16
84962116, 0, 9
84978764, 4, 16
84996444, 9, 4
85013080, 0, 0
85029712, 36, 9
85047404, 1, 9
85064044, 16, 4
85081708, 16, 9
85099392, 0, 0
85116036, 1, 1
85132676, 4, 0
85149324, 4, 1
85165956, 4, 0
85182608, 1, 0
85199248, 0, 1
85215876, 4, 0
85232508, 9, 0
85249160, 64, 1
85266836, 9, 4
85283468, 1, 4
85300104, 0, 0
85316764, 36, 1
85334436, 16, 0
85352116, 1, 0
85368764, 0, 1
85385412, 0, 0
85402036, 16, 1
85419704, 4, 9
85436348, 4, 0
85452996, 0, 4
85469640, 9, 9
85486272, 0, 0
85502908, 1, 0
85519564, 9, 0
85536196, 1, 1
85552840, 0, 4
85569476, 4, 9
85586120, 1, 0
85602756, 0, 1
85619388, 0, 16
85637068, 9, 1
85653716, 0, 4
85670360, 1, 4
85686992, 0, 0
85703628, 25, 16
85722356, 4, 25
85740032, 4, 4
85756684, 4, 4
85773316, 36, 1
85791000, 9, 16
85808680, 4, 9
85825312, 1, 4
85841960, 0, 0
85858596, 16, 9
85876272, 49, 0
85893960, 1, 0
85910596, 0, 0
85927240, 1, 0
85943880, 36, 4
85961552, 1, 4
85978192, 4, 4
85994848, 1, 1
86011476, 9, 0
86028112, 16, 4
86045796, 0, 0
86062436, 0, 4
86079068, 0, 1
86095716, 1, 1
86112356, 0, 1
86129000, 1, 25
86146684, 9, 9
86163324, 9, 1
86179964, 1, 0
86196596, 0, 4
86213236, 1, 1
86229868, 0, 4
86246524, 0, 0
86263172, 1, 1
86279796, 25, 0
86297464, 25, 1
86315160, 4, 4
86331808, 16, 0
86349484, 4, 0
86366112, 4, 0
86382760, 4, 1
86399396, 9, 0
86416028, 1, 0
86432672, 9, 4
86449320, 0, 1
86465964, 9, 0
86482588, 9, 1
86499224, 9, 0
86515884, 25, 9
86533556, 49, 4
86551232, 81, 4
86568912, 36, 1
86586612, 4, 0
86603228, 25, 9
86620908, 36, 9
86638600, 64, 4
86656284, 36, 16
86675000, 16, 9
86692672, 0, 0
86709316, 16, 4
86727000, 0, 4
86743640, 4, 1
86760268, 0, 4
86776912, 0, 0
86793564, 1, 4
86810188, 0, 1
86826832, 0, 4
86843480, 1, 0
86860124, 4, 0
86876744, 9, 9
86893384, 0, 0
86910036, 1, 0
86926684, 9, 4
86943312, 0, 0
86959960, 9, 1
86976604, 1, 9
86993244, 25, 1
87010920, 0, 0
87027556, 1, 0
87044204, 4, 1
87060844, 1, 0
87077472, 1, 4
87094112, 9, 0
87110756, 4, 1
87127400, 0, 1
87144032, 0, 4
87160668, 16, 1
87178360, 1, 4
87195016, 1, 1
87211632, 9, 0
87228280, 1, 0
87244916, 36, 4
87262600, 25, 0
87280280, 25, 0
87297948, 4, 0
87314596, 1, 0
87331236, 0, 1
87347876, 0, 0
87364508, 0, 0
87381160, 4, 1
87397804, 1, 4
87414436, 9, 16
87432108, 1, 1
87448760, 0, 1
87465404, 1, 1
87482044, 0, 1
87498676, 16, 1
87516360, 25, 0
87534020, 0, 0
87550668, 4, 1
87567308, 0, 0
87583956, 36, 9
87601632, 4, 9
87618276, 4, 4
87634912, 16, 9
87652604, 0, 1
87669228, 4, 0
87685868, 25, 0
87703564, 36, 4
87721248, 1, 1
87737876, 4, 9
87754516, 1, 25
87772204, 4, 4
87788844, 0, 1
87805480, 4, 1
87822116, 16, 9
87839796, 0, 0
87856444, 1, 0
87873076, 16, 4
87890760, 1, 0
87907408, 0, 1
87924052, 4, 1
87940676, 1, 0
87957316, 0, 1
87973964, 1, 4
87990604, 4, 9
88007240, 9, 1
88023872, 64, 4
88041564, 4, 1
88058208, 4, 4
88074836, 1, 1
88091464, 4, 0
88108120, 0, 4
88124760, 9, 9
88141388, 0, 0
88158036, 1, 1
88174672, 0, 1
88191316, 9, 4
88207948, 4, 0
88224592, 16, 0
88242276, 0, 0
88258916, 4, 4
88275548, 0, 4
88292196, 25, 1
88309884, 1, 0
88326528, 9, 1
88343164, 16, 4
88360832, 0, 0
88377484, 9, 1
88394116, 4, 4
88410752, 16, 0
88428424, 4, 0
88445076, 1, 4
88461724, 4, 4
88478352, 49, 9
88496032, 16, 4
88513724, 4, 1
88530360, 16, 0
88548040, 25, 0
88565708, 49, 1
88583400, 25, 0
88601072, 16, 1
88618748, 25, 4
88636440, 4, 1
88653072, 1, 0
88669720, 0, 4
88686344, 36, 0
88704044, 81, 16
88722756, 16, 4
88740436, 0, 0
88757076, 1, 0
88773712, 0, 0
88790356, 25, 4
88808032, 9, 1
88824664, 1, 0
88841328, 1, 0
88857968, 1, 1
88874596, 25, 0
88892276, 36, 4
88909964, 0, 0
88926604, 9, 1
88943240, 9, 4
88959872, 0, 4
88976524, 1, 0
88993160, 0, 1
89009796, 1, 0
89026432, 0, 4
89043080, 1, 4
89059716, 25, 0
89077388, 4, 1
89094036, 0, 0
89110676, 9, 1
89127316, 9, 0
89143948, 9, 1
89160592, 25, 0
89178272, 16, 4
89195948, 25, 4
89213628, 16, 1
89231312, 4, 1
89247964, 4, 0
89264600, 9, 4
89281240, 4, 16
89298908, 9, 1
89315564, 25, 4
89333236, 1, 4
89349888, 9, 1
89366508, 0, 0
89383172, 1, 1
89399800, 9, 0
89416428, 4, 0
89433068, 1, 0
89449724, 0, 9
89466356, 25, 0
89484032, 0, 0
89500684, 36, 4
89518360, 0, 1
89534992, 0, 0
89551628, 16, 0
89569324, 4, 1
89585964, 16, 0
89603640, 1, 0
89620276, 16, 0
89637956, 0, 0
89654596, 0, 1
89671228, 0, 4
89687876, 4, 36
89705568, 9, 1
89722212, 36, 9
89739884, 4, 4
89756512, 25, 4
89774196, 9, 0
89790844, 4, 9
89807488, 16, 0
89825160, 0, 1
89841800, 0, 0
89858452, 9, 1
89875068, 64, 1
89892756, 16, 4
89910440, 0, 1
89927068, 4, 0
89943704, 36, 0
89961396, 16, 4
89979088, 1, 0
89995708, 1, 0
90012352, 36, 4
90030032, 25, 16
90048764, 0, 1
90065392, 36, 4
90083084, 121, 9
90101804, 16, 0
90119492, 0, 0
90136112, 4, 1
90152748, 25, 4
90170436, 64, 0
90188112, 25, 0
90205788, 4, 1
90222432, 9, 0
90239080, 4, 1
90255716, 9, 0
90272356, 4, 1
90288992, 16, 4
90306672, 4, 0
90323316, 25, 0
90340996, 9, 1
90357628, 16, 0
90375312, 25, 0
90392992, 16, 0
90410676, 4, 1
90427308, 9, 0
90443960, 1, 0
90460596, 0, 1
90477236, 9, 0
90493868, 1, 4
90510524, 0, 36
90528192, 4, 0
90544832, 1, 0
90561456, 4, 0
90578120, 0, 9
90594760, 9, 0
90611396, 4, 0
90628020, 0, 4
90644676, 1, 0
90661312, 4, 0
90677956, 16, 1
90695632, 1, 4
90712284, 4, 1
90728920, 16, 4
90746592, 0, 0
90763232, 0, 1
90779876, 1, 0
90796512, 25, 1
90814184, 1, 0
90830824, 16, 1
90848520, 36, 9
90866204, 1, 1
90882832, 9, 1
90899492, 9, 4
90916124, 0, 4
90932768, 1, 9
90949392, 1, 0
90966036, 16, 0
90983724, 49, 1
91001396, 16, 4
91019076, 1, 1
91035724, 25, 1
91053400, 4, 0
91070036, 1, 0
91086676, 0, 4
91103324, 1, 9
91119964, 4, 4
91136592, 25, 4
91154276, 1, 0
91170916, 0, 0
91187564, 36, 9
91205236, 25, 1
91222912, 25, 1
91240608, 4, 0
91257252, 4, 0
91273880, 0, 1
91290516, 4, 1
91307164, 1, 4
91323804, 49, 16
91342516, 9, 1
91359144, 0, 4
91375808, 0, 0
91392428, 36, 4
91410116, 4, 0
91426748, 36, 36
91445472, 25, 49
91464196, 0, 16
91481868, 0, 0
91498512, 9, 0
91515160, 9, 0
91531800, 0, 4
91548428, 9, 1
91565084, 16, 0
91582764, 9, 0
91599408, 0, 9
91616044, 0, 49
91633720, 36, 0
91651404, 1, 1
91668024, 0, 4
91684676, 0, 0
91701316, 1, 0
91717960, 0, 4
91734600, 4, 4
91751236, 1, 9
91767876, 0, 9
91784520, 4, 0
91801148, 4, 0
91817800, 25, 4
91835480, 16, 0
91853160, 4, 1
91869788, 0, 16
91887480, 1, 1
91904112, 4, 4
91920752, 16, 0
91938432, 4, 0
91955084, 4, 0
91971724, 1, 4
91988364, 0, 4
92004992, 64, 16
92023704, 64, 25
92042436, 16, 9
92060116, 4, 0
92076752, 16, 0
92094432, 16, 1
92112116, 0, 0
92128756, 1, 1
92145384, 64, 4
92163080, 36, 1
92180760, 25, 1
92198448, 256, 1
92217152, 256, 9
92235884, 9, 64
92253572, 9, 49
92271240, 4, 9
92287868, 1, 1
92304532, 1, 49
92322208, 16, 100
92341960, 0, 4
92358592, 25, 81
92377328, 1, 49
92394996, 100, 4
92413708, 81, 1
92431404, 0, 9
92448044, 144, 0
92466748, 289, 16
92486516, 49, 25
92505232, 4, 36
92522912, 1, 49
92540592, 1, 144
92559312, 9, 361
92578036, 64, 49
92596760, 169, 100
92617544, 36, 81
92636280, 0, 16
92653964, 1, 9
92670588, 0, 49
92688276, 1, 25
92705960, 64, 9
92723636, 64, 25
92742356, 49, 25
92761080, 81, 16
92779796, 25, 49
92798516, 1, 225
92817236, 36, 25
92835960, 9, 16
92853636, 0, 144
92872356, 49, 1296
92893148, 100, 400
92913964, 49, 49
92932676, 169, 1
92951400, 100, 256
92972200, 144, 3025
92994036, 784, 676
93014828, 225, 16
93034604, 169, 25
93054360, 144, 36
93074124, 1, 1
93090748, 9, 81
93108456, 16, 529
93128208, 4, 196
93146928, 25, 1
93164600, 9, 1
93181244, 4, 169
93199952, 25, 484
93219720, 36, 1
93237400, 36, 841
93257144, 100, 529
93277952, 16, 49
93296680, 36, 169
93316440, 0, 4
93333080, 144, 441
93353868, 64, 49
93372596, 36, 0
93390276, 1, 0
93406916, 4, 144
93425632, 4, 144
93444360, 36, 144
93464108, 36, 144
93483868, 25, 9
93501560, 16, 9
93519244, 1, 0
93535876, 0, 9
93552508, 0, 4
93569160, 0, 81
93586856, 9, 9
93603468, 1, 400
93622180, 81, 289
93641956, 81, 100
93661732, 9, 121
93680436, 4, 100
93699168, 100, 100
93719964, 1, 16
93737628, 289, 400
93758428, 121, 144
93779236, 36, 64
93797960, 9, 16
93815628, 25, 100
93835404, 64, 361
93855160, 36, 36
93873876, 1, 81
93891548, 1, 121
93910272, 4, 1681
93930044, 49, 400
93949800, 49, 36
93968524, 4, 121
93987248, 0, 16
94004908, 36, 289
94024668, 16, 16
94043392, 36, 289
94063144, 64, 1296
94083948, 64, 400
94103728, 49, 4
94121388, 16, 4
94139068, 16, 25
94157792, 4, 9
94174440, 1, 1
94191064, 4, 4
94207720, 16, 100
94227488, 9, 256
94246204, 9, 25
94263876, 9, 16
94281564, 4, 36
94299248, 49, 16
94317964, 16, 49
94336680, 1, 49
94354352, 1, 25
94372036, 0, 25
94389708, 0, 36
94407396, 0, 4
94424028, 0, 16
94441720, 1, 0
94458356, 1, 9
94475000, 25, 25
94493716, 49, 169
94513472, 49, 81
94532196, 16, 9
94549876, 16, 121
94569640, 25, 121
94589396, 4, 16
94607068, 0, 0
94623712, 0, 1
94640360, 0, 0
94657000, 0, 16
94674676, 4, 16
94692340, 25, 4
94710040, 25, 4
94727732, 16, 25
94746440, 64, 1
94764116, 1, 4
94780764, 4, 289
94799472, 144, 900
94820272, 289, 841
94841080, 121, 4
94859808, 49, 1
94877476, 1, 9
94894124, 16, 1
94911800, 81, 49
94930508, 1, 4
94947152, 0, 36
94964844, 4, 225
94983564, 25, 324
95003316, 9, 9
95019948, 1, 36
95037644, 1, 36
95055316, 0, 1
95071956, 0, 0
95088596, 1, 49
95106280, 1, 1
95122908, 0, 16
95140588, 25, 121
95160364, 36, 64
95179084, 4, 16
95196756, 121, 289
95217552, 100, 441
95238352, 81, 361
95258116, 64, 144
95277884, 4, 36
95295552, 64, 324
95315324, 16, 64
95334044, 1, 0
95350672, 4, 4
95367328, 4, 4
95383968, 25, 81
95402672, 16, 16
95421392, 64, 64
95440112, 400, 1225
95461956, 1156, 676
95483792, 900, 121
95504596, 4, 576
95523316, 121, 121
95544108, 64, 0
95561804, 81, 49
95580524, 81, 169
95600280, 25, 0
95617948, 0, 49
95635640, 0, 25
95653312, 9, 0
95669960, 0, 9
95686592, 64, 121
95706360, 4, 324
95725072, 25, 100
95744836, 81, 64
95763556, 256, 49
95783320, 361, 1
95802028, 49, 1
95819700, 9, 4
95836356, 4, 49
95854040, 1, 1
95870684, 4, 16
95888348, 0, 4
95905004, 0, 4
95921640, 16, 36
95940356, 36, 225
95960120, 49, 144
95979876, 36, 841
95999636, 25, 841
96019388, 81, 64
96038116, 0, 1
96054764, 9, 4
96071396, 4, 100
96090124, 1, 0
96106752, 0, 36
96124440, 81, 441
96144184, 81, 121
96163952, 36, 36
96182676, 25, 121
96202440, 16, 121
96222188, 1, 121
96240920, 25, 9
96258600, 49, 289
96278344, 25, 25
96297072, 49, 4
96314760, 4, 16
96332432, 0, 36
96350112, 1, 25
96367808, 1, 0
96384432, 4, 0
96401076, 1, 1
96417712, 4, 0
96434368, 0, 4
96450988, 0, 25
96468676, 9, 225
96487388, 4, 25
96505076, 16, 16
96523804, 36, 100
96543556, 9, 49
96561236, 1, 0
96577888, 1, 1
96594504, 4, 36
96612200, 36, 81
96630932, 25, 1
96648604, 4, 0
96665228, 0, 16
96682912, 1, 36
96700600, 4, 4
96717228, 16, 36
96735948, 0, 16
96753624, 0, 1
96770280, 16, 9
96787956, 9, 0
96804600, 1, 0
96821228, 1, 16
96838916, 1, 4
96855560, 49, 100
96875312, 225, 324
96896116, 100, 144
96916912, 25, 81
96935636, 81, 144
96955396, 144, 100
96976196, 81, 9
96993876, 4, 25
97011556, 81, 1
97029236, 4, 144
97047960, 16, 9
97065632, 36, 484
97085392, 0, 100
97104128, 64, 36
97122836, 64, 121
97142588, 36, 81
97161324, 4, 49
97178996, 9, 1
97195624, 0, 4
97212276, 16, 196
97232036, 16, 36
97250764, 25, 1
97268428, 9, 1
97285068, 0, 1
97301720, 16, 1
97319384, 49, 9
97337072, 16, 25
97355792, 36, 121
97375568, 64, 256
97395308, 25, 25
97414040, 25, 1
97431716, 4, 25
97449388, 0, 64
97467068, 0, 81
97484740, 4, 225
97503476, 9, 225
97522204, 4, 0
97538840, 1, 100
97557556, 36, 36
97576276, 81, 49
97594992, 9, 36
97612664, 25, 100
97632444, 100, 484
97653228, 121, 256
97674040, 100, 0
97692748, 16, 64
97711476, 1, 64
97729156, 1, 0
97745784, 1, 64
97763484, 1, 576
97782192, 9, 64
97799884, 4, 4
97816504, 25, 0
97834196, 16, 1
97851872, 1, 0
97868516, 0, 4
97885144, 9, 144
97903880, 16, 100
97923628, 0, 64
97941316, 0, 1
97957964, 0, 9
97974608, 4, 49
97992272, 9, 16
98009956, 4, 16
98027632, 4, 81
98045316, 144, 36
98065072, 36, 1
98082740, 0, 16
98100440, 4, 25
98118112, 9, 9
98134756, 4, 4
98151388, 0, 64
98169080, 4, 64
98186756, 1, 81
98204440, 4, 49
98222120, 0, 81
98239804, 1, 121
98258516, 4, 121
98277236, 4, 16
98294912, 4, 0
98311568, 4, 0
98328196, 0, 9
98344832, 1, 121
98363564, 16, 225
98383312, 25, 64
98402028, 4, 16
98419708, 0, 1
98436368, 1, 36
98454040, 0, 49
98471720, 16, 9
98489412, 1, 4
98506032, 9, 0
98522664, 4, 36
98540356, 0, 1
98557000, 0, 1
98573640, 1, 49
98591324, 4, 64
98608992, 1, 16
98626684, 0, 1
98643328, 1, 9
98659956, 4, 0
98676588, 0, 4
98693240, 0, 1
98709884, 25, 4
98727556, 25, 0
98745228, 0, 9
98761876, 0, 16
98779568, 9, 9
98796196, 9, 36
98813868, 4, 25
98831560, 1, 1
98848184, 16, 64
98866904, 36, 9
98884588, 1, 400
98903312, 1, 121
98922028, 16, 1
98939716, 1, 9
98956360, 1, 4
98972996, 9, 0
98989632, 4, 16
99007312, 1, 36
99025008, 1, 25
99042680, 1, 169
99061392, 1, 36
99079072, 0, 256
99097800, 0, 81
99115468, 0, 100
99134200, 9, 81
99151868, 0, 0
99168520, 36, 4
99186204, 9, 144
99204920, 4, 81
99222600, 25, 25
99241324, 0, 4
99257948, 0, 36
99275640, 4, 256
99294356, 9, 324
99313080, 25, 256
99332824, 0, 100
99351560, 1, 16
99369236, 1, 4
99385888, 4, 225
99404596, 1, 144
99423324, 16, 64
99442044, 4, 1
99458672, 4, 9
99475316, 4, 16
99492996, 4, 9
99509648, 9, 4
99526276, 4, 400
99544988, 1, 400
99563716, 25, 49
99582436, 4, 1
99599076, 16, 9
99616744, 64, 169
99636516, 9, 16
99654192, 0, 25
99671876, 9, 81
99689556, 4, 9
99706192, 1, 25
99723872, 0, 4
99740524, 9, 1
99757156, 1, 16
99774848, 1, 25
99792508, 4, 121
99811224, 0, 121
99829960, 4, 0
99846596, 1, 81
99864280, 1, 49
99881956, 9, 25
99899636, 0, 4
99916268, 0, 25
99933956, 9, 64
99951644, 1, 4
99968276, 0, 256
99986996, 1, 49
100004672, 4, 1
100022352, 9, 0
100040040, 16, 100
100060836, 36, 256
100081636, 25, 324
100102432, 64, 676
100123232, 81, 144
100144032, 49, 4
100162760, 25, 9
100181472, 9, 1
100199160, 25, 9
100217888, 36, 16
100237636, 4, 0
100255308, 0, 4
100272992, 1, 49
100291712, 0, 81
100310444, 0, 4
100328116, 1, 36
100346828, 16, 196
100367632, 16, 64
100387396, 25, 9
100406124, 9, 1
100423796, 1, 49
100442516, 1, 9
100460196, 1, 64
100478912, 16, 49
100498684, 64, 36
100518444, 25, 4
100537148, 0, 0
100554840, 1, 4
100572524, 1, 9
100590196, 0, 0
100607876, 0, 49
100626596, 0, 16
100645308, 9, 16
100664036, 9, 4
100681712, 1, 64
100700452, 0, 100
100720184, 0, 100
100739948, 4, 529
100759716, 25, 196
100780520, 81, 144
100801312, 49, 9
100820036, 4, 121
100839792, 4, 81
100858504, 16, 0
100877224, 9, 36
100895964, 36, 36
100915728, 1, 1
100933388, 0, 64
100952116, 4, 16
100970840, 4, 4
100988516, 4, 16
101007228, 9, 4
101024916, 0, 100
101044672, 0, 361
101064432, 4, 49
101083164, 9, 1
101100848, 1, 1
101118516, 1, 4
101136192, 0, 0
101153880, 4, 256
101173636, 9, 100
101193396, 1, 0
101211072, 4, 0
101228752, 4, 49
101247464, 9, 25
101266196, 9, 36
101284920, 1, 81
101303640, 1, 64
101322348, 0, 9
101340032, 0, 16
101358768, 9, 196
101378516, 9, 169
101398284, 16, 36
101418040, 16, 4
101436756, 9, 64
101455476, 4, 196
101475228, 4, 25
101493960, 9, 36
101512672, 9, 64
101531400, 16, 0
101550116, 0, 16
101568836, 1, 49
101587548, 25, 1
101606272, 25, 1
101624992, 9, 1
101642676, 25, 0
101661396, 16, 16
101681156, 9, 4
101698836, 9, 49
101717556, 25, 144
101738356, 0, 25
101757088, 4, 1
101774764, 1, 36
101793480, 4, 25
101812188, 4, 16
101830916, 1, 16
101849640, 0, 256
101869384, 9, 64
101888120, 36, 1
101906832, 16, 4
101925556, 9, 25
101944268, 0, 25
101963004, 1, 0
101980664, 16, 9
101999388, 16, 9
102018116, 16, 0
102036836, 25, 9
102055548, 4, 0
102073244, 1, 1
102090920, 9, 0
102108588, 0, 4
102126268, 16, 25
102146036, 16, 1
102164756, 0, 16
102183472, 4, 9
102201152, 0, 9
102218840, 4, 25
102237556, 196, 16
102258352, 256, 49
102279152, 25, 324
102299964, 4, 36
102318664, 0, 49
102337388, 225, 841
102359244, 625, 1521
102382116, 289, 625
102403952, 4, 484
102423720, 121, 324
102445548, 4, 0
102463224, 121, 576
102485076, 9, 676
102504844, 9, 144
102524588, 0, 169
102544336, 0, 256
102564112, 16, 100
102584916, 36, 25
102604676, 16, 9
102623396, 4, 100
102643164, 25, 144
102663960, 64, 16
102683716, 64, 16
102703476, 36, 0
102722192, 0, 9
102739876, 25, 16
102759652, 64, 4
102778348, 36, 225
102799156, 400, 961
102820996, 784, 729
102842840, 100, 4
102862592, 25, 361
102883400, 9, 289
102903160, 36, 784
102923944, 81, 900
102944752, 64, 144
102965568, 1, 81
102984272, 49, 100
103005084, 36, 4
103023796, 0, 16
103042528, 1, 169
103062272, 4, 49
103081000, 36, 4
103099720, 25, 144
103120520, 49, 196
103141308, 9, 4
103158996, 9, 9
103176676, 100, 9
103196436, 16, 225
103217244, 1, 64
103235960, 25, 4
103254672, 9, 4
103272348, 1, 16
103291080, 4, 9
103308748, 1, 0
103326444, 1, 1
103344108, 16, 16
103363884, 49, 49
103383620, 324, 144
103405472, 121, 100
103427320, 16, 0
103446044, 0, 0
103463704, 9, 4
103481388, 1, 0
103499072, 4, 81
103517796, 4, 1
103535476, 16, 9
103554196, 9, 100
103573944, 16, 0
103592668, 64, 0
103611384, 16, 9
103630116, 4, 1
103647792, 0, 9
103665484, 4, 9
103683156, 36, 9
103701876, 81, 64
103721636, 1, 121
103741384, 0, 49
103760116, 16, 4
103778836, 64, 144
103799636, 100, 576
103821468, 121, 676
103843316, 64, 484
103864116, 0, 9
103881792, 16, 0
103900516, 0, 64
103919240, 4, 100
103938996, 9, 49
103957720, 16, 4
103976428, 0, 1
103994108, 64, 16
104013880, 81, 9
104032604, 25, 4
104051324, 1, 9
104068996, 0, 64
104087720, 4, 144
104107480, 25, 9
104126188, 36, 36
104145964, 9, 169
104165724, 0, 16
104184440, 9, 4
104202120, 0, 9
104219796, 9, 9
104237476, 16, 0
104256200, 25, 16
104275952, 4, 0
104293636, 1, 16
104312364, 9, 81
104331076, 4, 81
104349796, 1, 16
104368528, 4, 9
104386200, 1, 25
104404912, 9, 16
104423636, 16, 25
104443388, 1, 169
104463156, 1, 25
104481880, 1, 4
104499564, 0, 16
104518280, 4, 64
104536988, 9, 4
104554672, 1, 0
104572360, 1, 0
104590036, 0, 1
104607720, 0, 1
104625404, 1, 25
104644116, 4, 0
104661788, 9, 0
104679476, 9, 4
104697160, 4, 0
104714832, 0, 4
104732508, 0, 4
104750204, 9, 0
104767880, 16, 1
104786584, 4, 0
104804256, 4, 25
104822992, 0, 196
104842748, 0, 121
104862508, 0, 4
104880196, 1, 36
104898920, 9, 289
104918672, 16, 64
104938424, 9, 0
104956116, 1, 0
104973792, 0, 1
104991468, 0, 25
105010200, 4, 64
105028924, 0, 64
105047640, 9, 9
105065316, 1, 16
105084032, 4, 121
105103792, 4, 144
105123556, 1, 16
105142280, 4, 1
105159952, 4, 0
105177640, 1, 9
105195320, 4, 25
105214052, 1, 4
105231728, 1, 64
105250432, 0, 100
105270192, 0, 36
105288916, 1, 49
105307644, 4, 0
105325324, 1, 9
105343004, 16, 49
105362752, 49, 36
105382508, 4, 121
105402272, 100, 729
105424112, 144, 196
105445948, 49, 25
105465720, 4, 0
105483400, 1, 49
105502116, 16, 9
105520836, 64, 25
105540592, 9, 16
105559320, 0, 1
105577008, 9, 1
105594676, 4, 49
105613404, 1, 100
105633160, 9, 4
105650828, 81, 144
105671632, 64, 9
105690356, 0, 36
105709080, 0, 4
105726752, 16, 64
105746520, 0, 0
105764200, 4, 225
105783952, 16, 225
105804756, 4, 36
105823480, 0, 0
105841160, 9, 0
105858832, 36, 16
105878596, 49, 49
105898352, 25, 81
105918112, 0, 4
105935784, 9, 0
105953484, 9, 4
105971152, 4, 0
105988840, 1, 1
106006516, 4, 0
106024208, 16, 25
106043964, 9, 9
106061636, 1, 64
106080364, 16, 1
106099076, 0, 100
106118836, 16, 196
106139624, 1, 36
106158364, 1, 49
106177072, 25, 169
106197876, 0, 16
106216596, 25, 36
106236360, 4, 169
106256116, 9, 100
106275872, 36, 9
106294596, 1, 9
106312280, 1, 36
106331000, 9, 64
106349728, 9, 1
106367392, 0, 64
106386120, 4, 49
106404836, 9, 1
106422520, 0, 9
106440204, 4, 4
106457880, 1, 16
106476600, 0, 1
106494284, 4, 36
106512996, 0, 9
106530680, 0, 4
106548364, 4, 16
106567076, 25, 100
106587880, 36, 16
106607644, 9, 4
106625320, 0, 0
106643000, 4, 36
106661708, 4, 36
106680432, 1, 25
106699156, 4, 25
106717868, 4, 4
106735552, 4, 9
106753240, 1, 4
106770916, 1, 1
106788588, 0, 1
106806260, 0, 0
106823956, 0, 1
106841640, 0, 36
106860356, 0, 144
106880112, 4, 16
106898836, 9, 0
106916508, 0, 9
106934180, 0, 4
106951872, 4, 0
106969548, 0, 25
106988276, 1, 9
107005940, 0, 0
107023636, 1, 9
107041324, 1, 25
107060040, 1, 1
107077716, 0, 1
107095408, 1, 9
107113084, 0, 225
107132836, 0, 576
107152596, 9, 1
107170268, 0, 324
107190036, 36, 121
107210836, 49, 121
107231632, 4, 121
107251396, 1, 16
107270100, 4, 0
107287796, 1, 64
107306528, 0, 144
107326276, 1, 16
107344996, 9, 0
107362676, 1, 4
107380352, 0, 0
107398032, 25, 16
107417796, 0, 121
107437560, 0, 49
107456276, 81, 9
107475000, 196, 36
107495808, 36, 49
107515548, 1, 64
107534260, 9, 4
107551952, 0, 0
107569632, 0, 0
107587316, 1, 36
107606048, 4, 49
107624760, 0, 4
107642444, 0, 4
107660116, 0, 1
107677792, 1, 16
107696512, 0, 81
107715248, 4, 225
107734988, 4, 81
107753712, 9, 9
107771396, 4, 1
107789076, 4, 0
107806768, 9, 16
107825488, 25, 36
107845232, 36, 49
107864992, 9, 1
107882672, 1, 16
107901388, 0, 0
107919080, 1, 4
107936752, 1, 49
107955476, 4, 64
107974196, 4, 36
107992916, 1, 9
108010600, 0, 4
108028288, 0, 0
108045960, 1, 0
108063628, 9, 0
108081316, 1, 0
108098992, 1, 16
108117712, 0, 0
108135392, 4, 36
108154116, 0, 16
108172840, 9, 0
108190512, 0, 4
108208196, 0, 25
108226920, 1, 4
108244588, 0, 1
108262268, 0, 0
108279960, 0, 4
108297636, 0, 25
108316352, 4, 81
108335060, 36, 25
108354844, 25, 9
108373560, 0, 1
108391236, 0, 1
108408916, 0, 16
108427648, 1, 9
108445320, 4, 9
108462988, 0, 1
108480684, 4, 0
108498360, 0, 196
108518116, 9, 144
108537876, 9, 1
108555556, 0, 100
108575312, 25, 400
108596104, 36, 400
108616912, 49, 225
108637728, 25, 49
108657476, 4, 36
108676192, 25, 441
108697004, 784, 576
108718828, 1521, 36
108740676, 289, 196
108762520, 4, 361
108782264, 49, 100
108803076, 100, 1
108822836, 36, 25
108842600, 25, 25
108862356, 9, 4
108880040, 16, 1
108898756, 9, 4
108916444, 1, 25
108935152, 16, 81
108954916, 9, 0
108972596, 1, 36
108991312, 9, 0
109008992, 36, 16
109028764, 25, 100
109049556, 16, 121
109070356, 25, 16
109090120, 36, 25
109109876, 1, 0
109127548, 25, 25
109147316, 0, 1
109164996, 1, 169
109184748, 4, 225
109204524, 9, 0
109222192, 9, 81
109240920, 36, 529
109261712, 100, 324
109283568, 36, 0
109302284, 9, 1
109319948, 4, 0
109337636, 16, 36
109357392, 4, 25
109376112, 4, 25
109394836, 4, 0
109412532, 0, 4
109430200, 4, 16
109448916, 9, 100
109468660, 4, 36
109487400, 9, 9
109505076, 0, 81
109523788, 0, 81
109542528, 4, 0
109560204, 1, 36
109578908, 9, 49
109597628, 0, 9
109615312, 0, 100
109635072, 1, 196
109654828, 25, 1
109673568, 9, 9
109691240, 0, 1
109708904, 0, 16
109727628, 0, 16
109746364, 4, 36
109765076, 0, 196
109784836, 9, 121
109804596, 36, 4
109823324, 1, 100
109843072, 9, 169
109862824, 16, 49
109882612, 9, 25
109901320, 4, 0
109918996, 0, 25
109937720, 9, 4
109955408, 9, 9
109973080, 1, 9
109990760, 1, 4
110008436, 0, 4
110026116, 0, 49
110044836, 0, 49
110063548, 0, 0
110081240, 9, 0
110098904, 16, 0
110117636, 0, 16
110136360, 4, 9
110154036, 1, 1
110171712, 0, 1
110189396, 1, 4
110207084, 1, 1
110224772, 0, 1
110242432, 0, 4
110260108, 0, 9
110277804, 1, 16
110296504, 4, 49
110315228, 25, 49
110335004, 25, 36
110354760, 0, 25
110373480, 64, 1
110392200, 49, 100
110412996, 4, 49
110431704, 4, 0
110449392, 9, 0
110467060, 25, 1
110485792, 16, 4
110504508, 0, 9
110522192, 1, 81
110540924, 1, 25
110559648, 49, 100
110580436, 16, 196
110601232, 0, 9
110618928, 4, 64
110637636, 16, 49
110657396, 121, 16
110678196, 196, 0
110697956, 25, 1
110716684, 1, 4
110734356, 1, 625
110754124, 1, 196
110773876, 0, 529
110793624, 4, 361
110813396, 49, 25
110833152, 4, 4
110850828, 1, 4
110868524, 1, 4
110886200, 25, 121
110906992, 36, 81
110926744, 9, 9
110944440, 1, 36
110963152, 16, 0
110981872, 0, 49
111000596, 9, 0
111018276, 121, 100
111040112, 25, 144
111060908, 4, 16
111079640, 0, 121
111099396, 36, 81
111119156, 36, 0
111137884, 9, 1
111155556, 1, 4
111173232, 0, 1
111190908, 0, 4
111208592, 0, 100
111228352, 9, 144
111248112, 9, 16
111266844, 0, 49
111285564, 1, 256
111305320, 1, 196
111325076, 9, 16
111343796, 0, 4
111361480, 1, 9
111379152, 4, 0
111396824, 0, 0
111414524, 4, 36
111433240, 9, 64
111451948, 25, 1
111470680, 25, 4
111489400, 0, 0
111507080, 1, 36
111525788, 4, 25
111544516, 1, 1
111562188, 0, 0
111579880, 0, 9
111597552, 4, 4
111615240, 4, 1
111632916, 0, 4
111650596, 16, 16
111670356, 9, 144
111690128, 4, 16
111708840, 1, 9
111726512, 4, 25
111745236, 1, 36
111763960, 4, 1
111781628, 4, 0
111799316, 0, 4
111817000, 0, 9
111834680, 1, 1
111852348, 0, 1
111870032, 1, 0
111887716, 4, 0
111905388, 1, 1
111923072, 4, 1
111940756, 0, 9
111958436, 1, 64
111977156, 4, 16
111995872, 4, 1
112013556, 0, 9
112031224, 0, 36
112049956, 0, 64
112068684, 4, 16
112087396, 4, 1
112105068, 0, 4
112122748, 1, 16
112141476, 1, 4
112159156, 4, 1
112176832, 1, 1
112194500, 1, 0
112212196, 1, 0
112229872, 0, 1
112247552, 0, 0
112265232, 9, 0
112282916, 25, 1
112301624, 4, 49
112320356, 16, 64
112340132, 16, 49
112359876, 1, 25
112378592, 4, 25
112397324, 1, 49
112416048, 9, 1
112433716, 1, 4
112451404, 0, 0
112469084, 1, 1
112486760, 0, 4
112504436, 0, 1
112522116, 1, 4
112539792, 1, 1
112557476, 25, 1
112576188, 9, 16
112594920, 4, 4
112612604, 0, 4
112630280, 4, 0
112647948, 0, 0
112665644, 4, 1
112683324, 9, 9
112700996, 4, 1
112718676, 0, 0
112736356, 4, 4
112754040, 0, 9
112771712, 9, 4
112789388, 0, 0
112807080, 0, 1
112824752, 1, 0
112842432, 1, 0
112860108, 0, 0
112877808, 4, 0
112895480, 1, 1
112913152, 0, 4
112930852, 1, 4
112948524, 1, 0
112966196, 4, 0
112983864, 0, 0
113001556, 1, 0
113019236, 0, 1
113036912, 0, 0
113054592, 9, 1
113072292, 16, 9
113090996, 4, 0
113108676, 4, 0
113126348, 1, 0
113144032, 0, 4
113161712, 0, 1
113179396, 1, 1
113197088, 0, 0
113214772, 9, 0
113232440, 25, 0
113251152, 81, 9
113269892, 16, 1
113288608, 169, 1
113308352, 100, 0
113328104, 4, 1
113345800, 25, 1
113364516, 0, 1
113382184, 0, 16
113400916, 0, 4
113418608, 1, 1
113436276, 0, 1
113453960, 9, 0
113471652, 9, 0
113489324, 0, 1
113507000, 1, 0
113524676, 4, 1
113542356, 0, 1
113560028, 0, 25
113578756, 4, 1
113596440, 1, 0
113614116, 1, 0
113631788, 1, 0
113649472, 0, 9
113667160, 0, 0
113684848, 1, 0
113702504, 9, 0
113720196, 0, 0
113737884, 4, 1
113755564, 0, 1
113773232, 0, 0
113790916, 1, 0
113808604, 1, 9
113826268, 0, 4
113843948, 0, 0
113861632, 1, 0
113879312, 0, 1
113897004, 4, 4
113914676, 0, 0
113932352, 0, 0
113950036, 0, 0
113967720, 4, 1
113985400, 1, 0
114003076, 0, 0
114020752, 1, 0
114038436, 4, 1
114056096, 0, 0
114073796, 0, 0
114091476, 1, 0
114109164, 0, 0
114126836, 4, 0
114144520, 0, 0
114162200, 0, 0
114179864, 0, 0
114197560, 1, 0
114215232, 1, 0
114232916, 0, 0
114250592, 9, 0
114268280, 16, 9
114287000, 1, 1
114304672, 25, 1
114323392, 1, 4
114341080, 1, 0
114358756, 1, 1
114376432, 1, 0
114394104, 1, 0
114411796, 4, 0
114429492, 1, 0
114447164, 4, 0
114464844, 0, 0
114482528, 1, 0
114500200, 9, 0
114517876, 25, 1
114536592, 16, 0
114555312, 9, 0
114572996, 0, 0
114590672, 0, 4
114608372, 0, 4
114626040, 1, 0
114643720, 0, 4
114661396, 1, 4
114679080, 0, 1
114696756, 25, 4
114715476, 25, 0
114734204, 36, 1
114752924, 1, 0
114770588, 0, 1
114788268, 0, 0
114805956, 4, 9
114823636, 4, 16
114842356, 0, 4
114860028, 1, 1
114877724, 0, 0
114895400, 1, 4
114913076, 0, 4
114930756, 9, 4
114948444, 1, 1
114966116, 49, 1
114984844, 1, 1
115002536, 4, 1
115020196, 81, 0
115038916, 25, 1
115057632, 1, 1
115075324, 0, 1
115092992, 1, 0
115110680, 4, 1
115128364, 0, 0
115146044, 16, 0
115164764, 4, 1
115182436, 0, 0
115200132, 4, 0
115217796, 0, 0
115235476, 9, 1
115253144, 1, 0
115270836, 0, 4
115288520, 1, 1
115306208, 1, 0
115323880, 1, 1
115341560, 25, 1
115360288, 16, 1
115379000, 25, 1
115397728, 4, 1
115415400, 1, 0
115433076, 1, 4
115450756, 0, 16
115469488, 4, 1
115487148, 16, 1
115505884, 4, 9
115523556, 0, 1
115541232, 0, 0
115558912, 1, 1
115576592, 4, 1
115594284, 4, 0
115611960, 0, 0
115629640, 1, 1
115647320, 1, 0
115665004, 9, 0
115682688, 0, 0
115700356, 0, 0
115718036, 1, 0
115735724, 1, 0
115753400, 1, 4
115771072, 0, 0
115788748, 1, 0
115806440, 0, 1
115824124, 1, 1
115841792, 0, 0
115859480, 0, 1
115877160, 1, 4
115894828, 1, 0
115912516, 0, 1
115930196, 0, 0
115947876, 0, 1
115965548, 0, 0
115983244, 9, 4
116000928, 0, 0
116018596, 0, 0
116036272, 1, 0
116053948, 4, 4
116071640, 0, 0
116089308, 0, 1
116106992, 1, 0
116124684, 1, 1
116142360, 4, 0
116160040, 0, 0
116177708, 1, 1
116195392, 0, 4
116213084, 1, 0
116230752, 0, 0
116248436, 1, 0
116266116, 0, 1
116283804, 0, 1
116301476, 0, 1
116319156, 0, 0
116336848, 0, 0
116354516, 1, 4
116372192, 9, 25
116390920, 0, 4
116408600, 0, 0
116426276, 1, 1
116443960, 1, 0
116461644, 0, 1
116479320, 0, 0
116496996, 1, 0
116514676, 0, 0
116532352, 0, 1
116550044, 0, 0
116567716, 4, 0
116585400, 1, 0
116603088, 4, 4
116620748, 0, 0
116638432, 0, 1
116656104, 0, 0
116673800, 0, 0
116691480, 9, 1
116709156, 0, 1
116726836, 1, 1
116744520, 0, 0
116762208, 1, 0
116779884, 0, 0
116797556, 0, 4
116815232, 0, 4
116832912, 1, 0
116850592, 0, 9
116868284, 1, 0
116885960, 0, 1
116903632, 0, 0
116921316, 4, 4
116939000, 0, 0
116956668, 0, 0
116974344, 4, 0
116992044, 9, 1
117009716, 0, 0
117027392, 0, 0
117045080, 1, 1
117062760, 0, 1
117080452, 1, 0
117098124, 0, 0
117115800, 1, 4
117133468, 0, 0
117151156, 9, 4
117168844, 1, 0
117186512, 0, 1
117204192, 4, 0
117221884, 4, 1
117239556, 0, 1
117257240, 0, 0
117274920, 4, 0
117292596, 1, 1
117310276, 0, 9
117327960, 1, 0
117345636, 0, 1
117363312, 0, 1
117381000, 4, 0
117398684, 0, 4
117416356, 0, 0
117434032, 0, 0
117451700, 0, 0
117469404, 1, 4
117487072, 0, 0
117504756, 1, 0
117522428, 0, 0
117540136, 9, 4
117557804, 0, 0
117575468, 0, 0
117593156, 0, 1
117610840, 0, 0
117628516, 4, 4
117646196, 0, 4
117663884, 0, 0
117681564, 0, 0
117699244, 4, 1
117716912, 0, 0
117734596, 0, 0
117752264, 0, 0
117769952, 1, 0
117787628, 0, 1
117805316, 0, 0
117822992, 0, 0
117840672, 0, 0
117858368, 4, 1
117876036, 1, 0
117893716, 4, 0
117911388, 0, 0
117929088, 1, 1
117946756, 0, 0
117964432, 0, 0
117982112, 1, 0
117999804, 4, 1
118017480, 1, 0
118035164, 0, 1
118052820, 0, 0
118070512, 0, 0
118088188, 0, 1
118105868, 0, 0
118123552, 0, 0
118141240, 0, 9
118158916, 0, 25
118177632, 4, 1
118195320, 1, 1
118212996, 0, 0
118230672, 1, 0
118248352, 9, 4
118266040, 0, 0
118283712, 0, 4
118301396, 4, 0
118319076, 1, 1
118336772, 1, 0
118354436, 0, 1
118372112, 0, 0
118389804, 1, 1
118407484, 9, 1
118425164, 1, 0
118442836, 0, 0
118460524, 0, 0
118478212, 4, 4
118495876, 0, 0
118513556, 0, 0
118531236, 1, 4
118548916, 1, 4
118566592, 0, 1
118584268, 0, 0
118601952, 1, 0
118619640, 0, 0
118637324, 1, 4
118655004, 1, 0
118672676, 0, 0
118690352, 0, 1
118708036, 1, 1
118725720, 1, 0
118743404, 0, 1
118761068, 0, 1
118778752, 0, 0
118796452, 1, 4
118814128, 0, 0
118831792, 0, 1
118849468, 0, 0
118867164, 1, 1
118884836, 0, 4
118902516, 0, 0
118920200, 1, 0
118937892, 1, 4
118955568, 1, 0
118973232, 0, 0
118990916, 1, 0
119008592, 0, 0
119026272, 1, 1
119043952, 0, 0
119061636, 0, 1
119079320, 1, 0
119097000, 1, 9
119114664, 0, 0
119132356, 0, 0
119150024, 0, 0
119167704, 0, 0
119185392, 4, 1
119203080, 1, 0
119220764, 1, 0
119238428, 0, 0
119256124, 4, 4
119273800, 0, 0
119291476, 1, 0
119309152, 1, 0
119326836, 9, 1
119344524, 0, 1
119362192, 0, 0
119379868, 0, 1
119397560, 0, 1
119415236, 4, 1
119432920, 0, 0
119450592, 4, 0
119468272, 0, 0
119485952, 4, 0
119503632, 1, 0
119521316, 0, 0
119538996, 4, 0
119556684, 1, 0
119574360, 1, 0
119592048, 0, 1
119609716, 1, 0
119627384, 0, 0
119645076, 1, 4
119662760, 1, 0
119680428, 0, 0
119698120, 1, 0
119715796, 1, 9
119733488, 1, 0
119751160, 0, 0
119768836, 0, 0
119786512, 0, 0
119804204, 4, 0
119821868, 0, 9
119839556, 1, 9
119857244, 1, 1
119874920, 0, 0
119892604, 1, 0
119910280, 0, 0
119927952, 0, 0
119945636, 4, 0
119963316, 0, 0
119980996, 1, 0
119998676, 0, 1
120016360, 0, 1
120034044, 9, 1
120051704, 0, 0
120069396, 1, 0
120087084, 0, 0
120104760, 1, 1
120122440, 0, 0
120140112, 0, 1
120157788, 0, 1
120175480, 0, 4
120193176, 1, 0
120210844, 0, 0
120228512, 0, 0
120246188, 1, 1
120263880, 16, 1
120282592, 1, 0
120300272, 0, 0
120317944, 0, 1
120335644, 0, 1
120353324, 0, 1
120370992, 0, 0
120388680, 0, 4
120406352, 1, 0
120424036, 0, 4
120441712, 1, 0
120459396, 0, 0
120477076, 0, 0
120494752, 0, 0
120512432, 1, 0
120530116, 0, 0
120547792, 4, 0
120565472, 0, 0
120583140, 1, 0
120600840, 1, 0
120618528, 1, 0
120636200, 1, 0
120653880, 4, 0
120671560, 1, 0
120689240, 0, 1
120706912, 0, 0
120724592, 0, 0
120742288, 4, 1
120759952, 0, 0
120777636, 0, 1
120795316, 4, 0
120812996, 16, 4
120831720, 0, 0
120849384, 0, 1
120867076, 0, 0
120884752, 1, 0
120902432, 1, 0
120920112, 0, 0
120937808, 0, 1
120955484, 1, 1
120973160, 4, 1
120990848, 1, 0
121008516, 9, 0
121026188, 0, 1
121043868, 0, 1
121061560, 4, 0
121079232, 0, 0
121096904, 1, 0
121114588, 0, 1
121132292, 4, 4
121149956, 0, 1
121167640, 1, 4
121185312, 4, 0
121203000, 4, 0
121220676, 1, 0
121238356, 1, 1
121256040, 0, 1
121273724, 0, 4
121291404, 0, 1
121309076, 0, 0
121326752, 0, 0
121344432, 1, 0
121362112, 1, 0
121379780, 0, 0
121397476, 0, 0
121415156, 1, 1
121432840, 1, 4
121450528, 1, 0
121468200, 0, 0
121485868, 0, 0
121503552, 0, 0
121521232, 4, 0
121538912, 0, 0
121556588, 0, 0
121574280, 1, 0
121591968, 4, 1
121609636, 4, 0
121627316, 1, 0
121644988, 9, 0
121662680, 1, 0
121680356, 4, 1
121698032, 0, 1
121715708, 0, 4
121733404, 1, 0
121751088, 4, 4
121768752, 0, 1
121786440, 0, 0
121804112, 0, 0
121821796, 4, 1
121839464, 0, 0
121857164, 0, 0
121874836, 0, 0
121892512, 0, 0
121910200, 4, 1
121927884, 1, 0
121945556, 0, 0
121963232, 0, 0
121980912, 9, 1
121998588, 0, 0
122016280, 1, 1
122033944, 4, 0
122051644, 1, 1
122069328, 4, 0
122086996, 1, 0
122104680, 4, 1
122122356, 0, 1
122140044, 1, 1
122157712, 0, 0
122175388, 1, 0
122193080, 1, 1
122210752, 0, 0
122228440, 1, 0
122246112, 0, 0
122263796, 1, 1
122281476, 1, 1
122299156, 0, 0
122316844, 1, 1
122334512, 0, 0
122352200, 0, 0
122369884, 1, 4
122387560, 1, 1
122405236, 0, 0
122422916, 4, 0
122440596, 1, 4
122458280, 0, 0
122475960, 1, 1
122493640, 0, 1
122511312, 9, 0
122529016, 1, 1
122546680, 1, 0
122564344, 0, 0
122582032, 1, 0
122599728, 1, 4
122617388, 1, 0
122635068, 0, 1
122652756, 0, 0
122670440, 0, 4
122688124, 1, 0
122705800, 0, 1
122723472, 0, 0
122741156, 0, 0
122758836, 4, 1
122776500, 0, 0
122794192, 1, 0
122811876, 0, 1
122829564, 1, 4
122847228, 0, 0
122864916, 0, 0
122882592, 0, 0
122900272, 0, 0
122917964, 1, 4
122935640, 0, 0
122953316, 0, 1
122971000, 0, 1
122988692, 4, 0
123006372, 0, 0
123024036, 1, 0
123041708, 0, 0
123059400, 0, 0
123077076, 4, 0
123094744, 0, 0
123112424, 1, 0
123130128, 1, 0
123147812, 4, 4
123165472, 0, 1
123183156, 0, 0
123200832, 1, 0
123218516, 9, 1
123236196, 0, 0
123253872, 0, 0
123271556, 0, 0
123289248, 4, 1
123306920, 1, 0
123324604, 0, 0
123342264, 1, 0
123359952, 0, 0
123377632, 1, 1
123395324, 0, 0
123412996, 1, 0
123430676, 0, 0
123448372, 1, 0
123466044, 0, 1
123483720, 1, 1
123501388, 0, 1
123519068, 0, 0
123536768, 1, 1
123554436, 0, 0
123572116, 0, 1
123589796, 0, 0
123607484, 1, 4
123625152, 0, 0
123642824, 0, 0
123660516, 1, 0
123678196, 0, 1
123695880, 4, 0
123713552, 0, 0
123731232, 0, 0
123748912, 0, 0
123766592, 0, 4
123784284, 4, 1
123801956, 0, 0
123819636, 0, 0
123837316, 0, 0
123855004, 4, 1
123872684, 0, 0
123890360, 1, 0
123908040, 0, 1
123925736, 9, 1
123943400, 0, 0
123961064, 0, 0
123978740, 0, 0
123996456, 1, 4
124014124, 0, 0
124031796, 0, 0
124049480, 0, 1
124067176, 1, 4
124084840, 0, 0
124102508, 0, 0
124120196, 1, 0
124137880, 1, 0
124155556, 1, 1
124173228, 1, 0
124190912, 1, 0
124208588, 1, 0
124226284, 1, 1
124243952, 0, 0
124261648, 1, 0
124279316, 0, 1
124296996, 0, 1
124314684, 1, 0
124332360, 1, 0
124350032, 1, 0
124367716, 0, 1
124385408, 0, 1
124403080, 0, 0
124420748, 0, 0
124438424, 4, 0
124456112, 4, 4
124473796, 0, 0
124491468, 0, 1
124509148, 0, 0
124526836, 0, 0
124544520, 1, 0
124562200, 1, 0
124579876, 0, 0
124597560, 4, 0
124615236, 4, 4
124632904, 0, 1
124650600, 1, 1
124668280, 0, 0
124685960, 1, 1
124703632, 0, 0
124721328, 0, 0
124738988, 0, 1
124756676, 0, 1
124774364, 4, 1
124792044, 0, 1
124809704, 1, 0
124827396, 0, 0
124845092, 4, 0
124862760, 0, 0
124880428, 0, 0
124898104, 0, 0
124915804, 4, 1
124933480, 0, 0
124951148, 0, 0
124968828, 0, 1
124986520, 1, 0
125004212, 1, 1
125021880, 0, 0
125039552, 0, 0
125057232, 0, 0
125074920, 4, 1
125092596, 0, 1
125110268, 0, 0
125127960, 1, 1
125145652, 4, 4
125163320, 1, 1
125181016, 0, 0
125198672, 0, 0
125216344, 0, 0
125234036, 4, 4
125251720, 0, 0
125269392, 0, 0
125287072, 0, 0
125304756, 9, 0
125322448, 1, 0
125340112, 0, 0
125357796, 0, 1
125375468, 0, 0
125393164, 1, 1
125410840, 0, 1
125428512, 1, 0
125446200, 0, 0
125463888, 1, 4
125481552, 0, 0
125499228, 1, 0
125516916, 1, 0
125534604, 1, 4
125552280, 4, 0
125569948, 0, 0
125587632, 0, 0
125605308, 0, 0
125623004, 4, 1
125640672, 0, 0
125658356, 1, 0
125676024, 0, 0
125693708, 0, 1
125711400, 0, 0
125729084, 0, 1
125746760, 1, 0
125764448, 4, 4
125782124, 0, 0
125799808, 0, 0
125817468, 0, 1
125835152, 0, 0
125852844, 1, 4
125870512, 0, 1
125888192, 0, 1
125905868, 0, 0
125923572, 4, 0
125941244, 0, 0
125958920, 0, 1
125976604, 1, 0
125994276, 0, 1
126011956, 1, 1
126029632, 0, 0
126047320, 1, 0
126065000, 0, 0
126082684, 9, 1
126100360, 0, 0
126118036, 0, 1
126135712, 0, 0
126153400, 9, 1
126171068, 0, 0
126188760, 1, 0
126206432, 0, 1
126224124, 1, 1
126241808, 4, 1
126259480, 0, 0
126277156, 0, 1
126294832, 0, 0
126312524, 1, 1
126330200, 0, 0
126347876, 0, 0
126365560, 1, 0
126383244, 1, 0
126400920, 1, 0
126418600, 1, 0
126436264, 0, 1
126453960, 1, 0
126471636, 0, 1
126489312, 1, 0
126506988, 0, 4
126524680, 0, 0
126542372, 4, 4
126560036, 0, 0
126577716, 1, 0
126595396, 0, 0
126613076, 0, 1
126630756, 0, 0
126648440, 0, 0
126666112, 1, 0
126683792, 0, 1
126701476, 0, 1
126719160, 1, 0
126736840, 0, 0
126754520, 1, 1
126772188, 4, 4
126789880, 0, 0
126807556, 0, 0
126825240, 1, 0
126842936, 4, 1
126860616, 0, 0
126878276, 0, 0
126895948, 0, 0
126913632, 0, 0
126931324, 1, 4
126948996, 0, 0
126966676, 0, 0
126984360, 0, 0
127002044, 1, 4
127019728, 1, 0
127037396, 0, 0
127055076, 0, 1
127072744, 0, 0
127090436, 4, 1
127108116, 0, 0
127125796, 0, 0
127143484, 1, 0
127161168, 9, 1
127178848, 0, 0
127196512, 0, 0
127214192, 1, 0
127231876, 1, 1
127249564, 4, 0
127267232, 0, 0
127284904, 4, 0
127302588, 4, 0
127320292, 0, 4
127337960, 1, 0
127355640, 0, 0
127373312, 0, 1
127390996, 4, 4
127408676, 0, 0
127426352, 1, 0
127444036, 4, 0
127461724, 9, 0
127479404, 1, 0
127497084, 1, 0
127514760, 0, 1
127532436, 0, 1
127550116, 16, 1
127568828, 0, 1
127586512, 0, 0
127604200, 0, 4
127621884, 0, 1
127639564, 4, 1
127657240, 0, 0
127674924, 1, 0
127692592, 1, 0
127710276, 4, 1
127727964, 0, 1
127745636, 0, 0
127763312, 0, 0
127781012, 1, 0
127798692, 1, 1
127816360, 0, 0
127834016, 0, 0
127851712, 0, 0
127869396, 4, 1
127887072, 0, 0
127904748, 0, 0
127922440, 1, 0
127940124, 4, 0
127957796, 0, 0
127975476, 0, 1
127993156, 1, 0
128010832, 1, 0
128028516, 0, 1
128046196, 0, 1
128063876, 0, 0
128081552, 0, 0
128099236, 4, 0
128116916, 0, 0
128134600, 0, 1
128152264, 0, 0
128169948, 1, 0
128187640, 1, 0
128205316, 1, 0
128222984, 0, 0
128240684, 1, 1
128258364, 0, 1
128276048, 1, 1
128293716, 0, 0
128311404, 1, 0
128329088, 9, 1
128346756, 0, 0
128364432, 1, 0
128382116, 0, 0
128399800, 1, 0
128417480, 1, 0
128435144, 1, 0
128452848, 0, 0
128470508, 0, 0
128488196, 4, 9
128505884, 0, 1
128523556, 1, 0
128541228, 0, 0
128558924, 4, 4
128576608, 0, 0
128594280, 0, 0
128611956, 1, 1
128629632, 1, 0
128647324, 0, 9
128665000, 1, 0
128682668, 0, 0
128700344, 0, 0
128718044, 4, 4
128735712, 0, 0
128753396, 1, 0
128771076, 0, 1
128788752, 0, 4
128806440, 1, 0
128824104, 0, 0
128841796, 0, 0
128859488, 1, 0
128877164, 1, 4
128894836, 0, 0
128912516, 0, 0
128930196, 0, 1
128947872, 1, 4
128965548, 1, 0
128983244, 0, 0
129000920, 1, 0
129018604, 4, 0
129036276, 0, 0
129053968, 0, 0
129071648, 1, 0
129089316, 0, 0
129107004, 4, 4
129124672, 0, 0
129142356, 1, 0
129160040, 1, 1
129177720, 9, 1
129195400, 0, 0
129213080, 0, 0
129230744, 0, 0
129248440, 0, 0
129266116, 9, 1
129283780, 0, 0
129301468, 4, 0
129319156, 0, 0
129336844, 9, 1
129354512, 0, 1
129372196, 0, 4
129389876, 1, 0
129407556, 1, 1
129425236, 1, 0
129442924, 1, 0
129460596, 1, 0
129478280, 1, 0
129495972, 0, 1
129513640, 0, 0
129531308, 0, 0
129548996, 1, 0
129566668, 4, 1
129584364, 0, 0
129602036, 0, 0
129619712, 0, 0
129637404, 1, 0
129655080, 1, 0
129672760, 0, 0
129690432, 1, 0
129708112, 0, 0
129725804, 4, 1
129743472, 1, 0
129761156, 1, 0
129778844, 0, 0
129796524, 4, 1
129814196, 0, 0
129831872, 1, 0
129849556, 1, 0
129867236, 1, 1
129884916, 0, 1
129902584, 0, 0
129920272, 0, 0
129937960, 0, 0
129955648, 4, 1
129973328, 0, 0
129991000, 0, 0
130008676, 1, 1
130026356, 1, 1
130044044, 0, 0
130061712, 0, 0
130079388, 0, 0
130097076, 1, 1
130114768, 1, 0
130132436, 0, 0
130150108, 1, 0
130167788, 0, 0
130185480, 4, 1
130203164, 0, 0
130220836, 0, 0
130238524, 0, 0
130256208, 1, 0
130273872, 1, 1
130291552, 0, 0
130309236, 0, 0
130326916, 0, 0
130344592, 1, 1
130362268, 0, 0
130379956, 0, 0
130397632, 0, 0
130415320, 4, 4
130432980, 0, 0
130450672, 0, 0
130468356, 1, 1
130486032, 0, 0
130503724, 1, 4
130521396, 0, 1
130539064, 1, 0
130556760, 1, 0
130574444, 1, 1
130592128, 1, 0
130609788, 0, 0
130627468, 0, 1
130645152, 1, 4
130662836, 0, 1
130680516, 0, 0
130698184, 0, 1
130715884, 0, 1
130733560, 1, 0
130751244, 0, 1
130768916, 0, 0
130786592, 0, 0
130804268, 1, 1
130821952, 0, 0
130839632, 0, 0
130857316, 0, 0
130875008, 1, 1
130892684, 1, 0
130910368, 0, 0
130928036, 0, 1
130945708, 0, 1
130963392, 1, 4
130981072, 0, 0
130998760, 1, 0
131016428, 0, 0
131034120, 1, 4
131051800, 1, 0
131069488, 0, 0
131087156, 1, 0
131104840, 0, 1
131122524, 1, 0
131140196, 0, 4
131157876, 1, 0
131175572, 0, 1
131193256, 0, 1
131210916, 1, 0
131228592, 0, 1
131246272, 0, 0
131263960, 1, 1
131281632, 1, 0
131299300, 0, 0
131316996, 0, 0
131334688, 1, 0
131352364, 1, 0
131370036, 0, 0
131387720, 1, 0
131405396, 0, 0
131423080, 4, 4
131440764, 0, 0
131458440, 0, 1
131476112, 0, 0
131493800, 0, 4
131511488, 0, 0
131529156, 1, 0
131546832, 0, 1
131564512, 0, 1
131582204, 4, 1
131599876, 0, 0
131617556, 1, 0
131635244, 1, 0
131652928, 0, 1
131670612, 1, 0
131688280, 0, 0
131705956, 0, 0
131723636, 0, 0
131741320, 4, 1
131758992, 1, 0
131776676, 4, 1
131794360, 4, 0
131812048, 1, 1
131829712, 0, 0
131847400, 0, 1
131865076, 1, 0
131882764, 9, 1
131900444, 0, 1
131918112, 0, 0
131935796, 1, 0
131953484, 0, 1
131971164, 1, 4
131988844, 1, 0
132006520, 0, 1
132024196, 0, 0
132041880, 1, 4
132059556, 0, 0
132077232, 1, 0
132094908, 0, 1
132112608, 0, 1
132130284, 1, 0
132147956, 0, 0
132165620, 0, 0
132183316, 0, 0
132201016, 1, 9
