Timestamp (micros),Sensor1 (mV),Sensor2 (mV)
151600, 11449, 8281
53856, 10404, 2500
56124, 729, 400
58268, 121, 9
60668, 576, 676
78340, 25, 100
94976, 9, 4
108496, 144, 64
126188, 1600, 100
145952, 900, 25
163608, 1444, 81
182340, 841, 289
201056, 16, 81
217704, 324, 49
235388, 49, 100
253060, 64, 25
269708, 49, 4
285292, 196, 289
304016, 196, 121
322748, 49, 1
338332, 225, 100
357052, 0, 64
372652, 225, 100
391384, 4, 361
408028, 196, 1
424652, 529, 256
443380, 100, 81
461064, 1, 36
476652, 16, 49
493300, 100, 324
512020, 9, 64
527620, 144, 121
546348, 49, 81
562976, 144, 4
579624, 100, 4
596260, 81, 9
611868, 576, 64
629532, 625, 256
648264, 529, 1
664904, 484, 64
682576, 961, 1
699212, 900, 0
715868, 49, 9
731472, 529, 9
748100, 9, 196
764716, 64, 324
782412, 2116, 400
802172, 4225, 361
821916, 1089, 64
840656, 576, 9
857300, 784, 400
876020, 81, 196
893696, 441, 4
910324, 441, 1
926988, 64, 196
944656, 576, 361
963376, 625, 64
981064, 16, 121
998740, 81, 1
1014332, 1444, 4
1033044, 1849, 225
1053864, 121, 9
1071524, 1764, 225
1092320, 324, 64
1111060, 4489, 9
1129772, 10000, 256
1151616, 2209, 484
1172392, 625, 144
1192176, 1296, 121
1212960, 784, 49
1231680, 196, 0
1249372, 100, 0
1267060, 256, 100
1286824, 225, 16
1305540, 16, 0
1322180, 256, 100
1341940, 36, 16
1359620, 225, 9
1377304, 16, 36
1394984, 784, 64
1413696, 841, 361
1433456, 64, 9
1450108, 4, 25
1466748, 16, 144
1485460, 1, 36
1502088, 324, 36
1520816, 196, 0
1538488, 841, 4
1556172, 1296, 0
1574900, 64, 16
1592584, 36, 64
1610256, 2304, 169
1631060, 3600, 196
1651868, 900, 49
1670580, 4, 0
1686184, 784, 81
1704900, 2116, 16
1724656, 9801, 484
1745452, 1369, 400
1766260, 784, 4
1783944, 1089, 225
1804732, 121, 169
1824496, 49, 16
1842168, 1444, 9
1860900, 144, 49
1879604, 4225, 36
1899384, 7569, 361
1920176, 2116, 256
1940976, 225, 36
1959692, 625, 1
1977380, 1089, 121
1998176, 49, 25
2015852, 1024, 4
2034580, 2025, 36
2054336, 361, 49
2073052, 196, 1
2090736, 4, 36
2107372, 4, 64
2124016, 4, 100
2141692, 484, 169
2161460, 0, 25
2178100, 64, 16
2195768, 441, 81
2214492, 1369, 1
2233220, 25, 16
2250912, 9, 49
2267552, 169, 4
2285224, 441, 4
2302900, 1, 36
2319532, 121, 100
2339292, 576, 49
2358012, 64, 16
2375704, 1764, 49
2395472, 121, 64
2414180, 196, 0
2431860, 0, 16
2448504, 144, 81
2467208, 6400, 361
2488008, 11881, 784
2509860, 1849, 121
2530660, 196, 0
2548328, 484, 64
2567060, 36, 1
2583704, 289, 400
2603468, 625, 36
2622180, 784, 25
2640888, 1681, 441
2661704, 784, 81
2680416, 529, 9
2698104, 900, 81
2716816, 196, 49
2735532, 4, 0
2751136, 81, 256
2769856, 625, 784
2789636, 961, 64
2808360, 100, 9
2826020, 4, 49
2842676, 196, 144
2862420, 289, 49
2881136, 4624, 25
2900880, 4489, 100
2921700, 3481, 169
2942500, 784, 81
2961224, 121, 1
2978900, 1764, 4
2997616, 2704, 144
3018412, 1521, 121
3039212, 784, 1
3056908, 196, 0
3074592, 16, 4
3091208, 81, 196
3109940, 4, 81
3126588, 289, 25
3145300, 441, 9
3162976, 9, 49
3179632, 100, 36
3198340, 64, 324
3217064, 25, 36
3234728, 81, 9
3251372, 729, 81
3270104, 16, 64
3287776, 196, 144
3307536, 169, 81
3326252, 361, 16
3344976, 36, 36
3362660, 144, 4
3380340, 324, 64
3399072, 16, 25
3416728, 256, 81
3435452, 576, 100
3455220, 0, 36
3471856, 625, 9
3489540, 49, 1
3506172, 144, 225
3525940, 9, 9
3541548, 196, 16
3560264, 169, 121
3580024, 25, 64
3597716, 121, 0
3615376, 0, 9
3630968, 81, 25
3648676, 1, 0
3664276, 36, 36
3681948, 49, 16
3699616, 4, 25
3716268, 1, 169
3733944, 4, 25
3750576, 441, 1
3768232, 900, 196
3788016, 289, 256
3807792, 121, 16
3826496, 225, 196
3846264, 25, 64
3863952, 9, 4
3879548, 4, 121
3897212, 25, 49
3914900, 196, 81
3933612, 169, 121
3953384, 4, 25
3970008, 169, 36
3988744, 529, 1
4006440, 49, 36
4024096, 169, 0
4041784, 400, 9
4059472, 9, 1
4075056, 324, 49
4093772, 169, 49
4112504, 225, 36
4131220, 324, 49
4149940, 121, 64
4168648, 324, 0
4186352, 729, 25
4205056, 361, 256
4224828, 0, 16
4241464, 169, 64
4260184, 225, 64
4278904, 1, 9
4294500, 36, 81
4312184, 1, 25
4328832, 0, 49
4345460, 0, 0
4361060, 1, 9
4376668, 100, 225
4396432, 1, 196
4414100, 225, 16
4432816, 36, 81
4450500, 169, 64
4469212, 256, 0
4486892, 81, 16
4504580, 49, 100
4523304, 36, 0
4539940, 256, 0
4557620, 4, 25
4574260, 25, 64
4591948, 144, 9
4609628, 900, 121
4629388, 100, 64
4648104, 169, 49
4666816, 100, 0
4684500, 0, 36
4701132, 9, 49
4717776, 81, 16
4735456, 16, 81
4753136, 36, 196
4771868, 225, 4
4789544, 9, 9
4805148, 1, 144
4822820, 100, 225
4842576, 121, 64
4861304, 16, 16
4878972, 16, 0
4895624, 100, 196
4915388, 49, 225
4934104, 0, 0
4949700, 4, 36
4966332, 4, 1
4981944, 0, 49
4998580, 16, 1
5015220, 0, 100
5032888, 0, 196
5050584, 49, 49
5068260, 9, 36
5084888, 4, 49
5101532, 4, 225
5119228, 36, 49
5136896, 16, 49
5154580, 9, 9
5170172, 1, 225
5187864, 36, 25
5205548, 16, 81
5223216, 1, 25
5239864, 9, 25
5256508, 16, 25
5274176, 49, 1
5290808, 400, 121
5310584, 25, 9
5327228, 64, 1
5343856, 225, 225
5363612, 144, 100
5383380, 0, 9
5398976, 16, 36
5416664, 81, 9
5433292, 1, 64
5449940, 225, 289
5469692, 361, 49
5488412, 484, 49
5507152, 144, 36
5525872, 4, 9
5541452, 0, 4
5557060, 81, 9
5573712, 225, 196
5593468, 4, 121
5611144, 49, 25
5628828, 64, 9
5645464, 64, 16
5663132, 16, 100
5681856, 441, 361
5701612, 169, 36
5720344, 64, 64
5738028, 144, 16
5756740, 1, 0
5772344, 169, 64
5791064, 121, 49
5809776, 16, 121
5828504, 1, 121
5846184, 49, 9
5862812, 361, 121
5882572, 121, 121
5902332, 4, 1
5917940, 1, 25
5934580, 4, 9
5950184, 25, 1
5966824, 16, 4
5983468, 81, 100
6002180, 0, 49
6018828, 36, 36
6036496, 0, 25
6053152, 0, 16
6069784, 0, 0
6085384, 0, 9
6100960, 36, 169
6119708, 49, 256
6138420, 0, 1
6154020, 0, 1
6169620, 0, 64
6186268, 4, 81
6202900, 16, 16
6220584, 4, 4
6236184, 49, 144
6254908, 9, 4
6270508, 25, 81
6288188, 16, 225
6306912, 9, 25
6323548, 1, 1
6339140, 4, 49
6355780, 1, 100
6373460, 25, 1
6390100, 0, 81
6406736, 9, 196
6424412, 25, 16
6442100, 49, 4
6458744, 16, 1
6475376, 0, 25
6492020, 25, 16
6509704, 0, 1
6525304, 9, 49
6541944, 9, 1
6557532, 1, 4
6573152, 4, 1
6588744, 121, 81
6607460, 36, 100
6626176, 16, 9
6642824, 16, 0
6659460, 16, 144
6678176, 25, 169
6696892, 4, 4
6712504, 64, 4
6729144, 36, 100
6747868, 0, 81
6764492, 1, 9
6780104, 9, 36
6796736, 9, 196
6814420, 16, 64
6832092, 25, 0
6848744, 16, 169
6867452, 64, 169
6886188, 4, 1
6901796, 9, 9
6917380, 16, 81
6935068, 9, 81
6951700, 4, 1
6967308, 0, 100
6984992, 9, 196
7002676, 1, 36
7019288, 49, 144
7038020, 25, 64
7055712, 1, 36
7072352, 4, 49
7088992, 1, 196
7106672, 9, 121
7124340, 4, 9
7139944, 4, 4
7155540, 9, 1
7171148, 9, 9
7186752, 4, 36
7203380, 1, 100
7221064, 49, 4
7237700, 16, 100
7256428, 16, 100
7275140, 4, 4
7290736, 9, 36
7307388, 25, 289
7326112, 9, 256
7343776, 36, 1
7360416, 81, 16
7378108, 16, 121
7396816, 1, 64
7413472, 0, 49
7430092, 1, 25
7446740, 144, 144
7466496, 324, 169
7486260, 100, 0
7503940, 4, 16
7520584, 81, 1
7537220, 4, 100
7554900, 4, 324
7572588, 25, 16
7590272, 4, 0
7605856, 256, 36
7624580, 100, 81
7643308, 49, 4
7659944, 25, 0
7676580, 4, 144
7694252, 4, 169
7711948, 64, 16
7729620, 16, 0
7746268, 4, 144
7763940, 0, 225
7781624, 25, 4
7798252, 9, 4
7813852, 0, 4
7829448, 4, 0
7845072, 25, 144
7863784, 1, 225
7881468, 36, 1
7898096, 4, 1
7913704, 9, 0
7929300, 16, 0
7945944, 9, 144
7963624, 9, 169
7981308, 0, 4
7996900, 1, 36
8013540, 49, 0
8030172, 121, 49
8048908, 36, 1
8065532, 25, 100
8084256, 36, 144
8102988, 9, 1
8118584, 25, 1
8135208, 4, 196
8152896, 16, 289
8171628, 1, 4
8187224, 100, 25
8205936, 81, 144
8224672, 36, 1
8241304, 4, 196
8258992, 1, 9
8274568, 1, 9
8290176, 1, 49
8306832, 81, 0
8323460, 36, 25
8341132, 25, 196
8359844, 0, 100
8377544, 81, 0
8394176, 196, 196
8413936, 256, 121
8433704, 256, 4
8451380, 121, 121
8471132, 49, 49
8488812, 400, 0
8506496, 121, 0
8524180, 25, 81
8541852, 121, 225
8561600, 16, 25
8579300, 441, 1
8596984, 400, 25
8615696, 64, 0
8632344, 0, 36
8648984, 9, 144
8666668, 16, 4
8683304, 9, 144
8700984, 16, 324
8719716, 0, 1
8735300, 100, 1
8752980, 196, 64
8771708, 49, 81
8789388, 36, 36
8807048, 0, 64
8823692, 1, 100
8841384, 49, 36
8859064, 0, 16
8875700, 1, 4
8891284, 49, 81
8908976, 25, 121
8927692, 4, 16
8944340, 0, 25
8960980, 100, 49
8979712, 9, 196
8997380, 81, 0
9014008, 16, 0
9030644, 9, 4
9046268, 4, 64
9062904, 1, 36
9079540, 36, 121
9098260, 36, 0
9114904, 16, 49
9132576, 289, 225
9152328, 576, 100
9172100, 64, 4
9188736, 64, 36
9206412, 16, 9
9223048, 324, 121
9242820, 784, 169
9262580, 121, 1
9280256, 1024, 16
9300024, 256, 0
9317700, 36, 64
9335388, 4, 25
9352012, 4, 144
9369708, 25, 25
9387388, 121, 49
9406096, 196, 0
9423772, 169, 9
9441460, 196, 169
9461212, 81, 81
9478908, 121, 9
9496568, 169, 9
9514252, 196, 9
9531948, 676, 64
9550652, 1444, 25
9570416, 676, 0
9588108, 1, 36
9604744, 400, 1
9622424, 441, 0
9640088, 361, 16
9658800, 2601, 1
9677524, 9604, 625
9698336, 13924, 1296
9721224, 841, 576
9740976, 1225, 9
9759676, 3969, 196
9780504, 3025, 169
9801300, 121, 81
9820020, 4, 16
9836656, 324, 144
9856424, 2116, 121
9877212, 576, 49
9895940, 121, 1
9913628, 25, 16
9931308, 9, 1
9946900, 1, 1
9962492, 0, 1
9978104, 9, 49
9994736, 36, 144
10013452, 1089, 121
10035300, 4096, 169
10057140, 729, 289
10077936, 256, 25
10097708, 49, 1
10115384, 900, 100
10136180, 4, 25
10153852, 81, 4
10171540, 169, 9
10190252, 676, 49
10210000, 1521, 9
10229764, 1156, 100
10251628, 9, 196
10270332, 9, 16
10288020, 4, 16
10305704, 441, 256
10326484, 400, 256
10347284, 3844, 64
10368100, 1521, 441
10389948, 4, 100
10408664, 289, 324
10429456, 169, 16
10449216, 81, 100
10468972, 144, 36
10488736, 576, 0
10507464, 1600, 9
10527220, 1521, 64
10548012, 784, 81
10567792, 529, 49
10587556, 1, 100
10606264, 36, 1
10623932, 0, 0
10640588, 0, 25
10658260, 324, 81
10678024, 169, 64
10697792, 25, 0
10715476, 9, 4
10732104, 100, 49
10751848, 81, 16
10770588, 1, 1
10787216, 1225, 16
10808008, 3025, 0
10827768, 1024, 16
10848588, 529, 0
10867296, 169, 4
10886020, 0, 1
10902664, 169, 1
10921384, 0, 36
10939056, 169, 4
10957792, 9, 144
10976516, 81, 1
10994176, 16, 4
11011860, 1, 100
11030592, 1, 36
11048272, 9, 1
11064900, 225, 100
11085696, 9, 169
11104416, 576, 0
11123136, 256, 0
11141860, 121, 0
11160584, 4, 9
11177228, 361, 4
11195944, 100, 49
11215692, 100, 25
11235460, 625, 25
11255212, 676, 25
11274968, 324, 25
11294744, 25, 4
11312420, 9, 36
11330108, 36, 49
11348816, 64, 1
11366500, 625, 49
11386260, 169, 36
11406020, 4, 9
11422656, 25, 4
11440348, 16, 4
11458020, 25, 1
11475700, 0, 9
11492344, 4, 1
11508992, 36, 16
11527708, 225, 9
11546424, 361, 16
11566180, 144, 0
11584900, 4, 1
11601540, 1, 64
11619216, 25, 16
11637944, 16, 0
11655620, 1, 16
11673292, 36, 16
11692008, 81, 81
11710744, 36, 9
11728420, 36, 4
11746104, 16, 0
11763784, 100, 49
11783540, 100, 144
11804336, 4, 16
11822012, 361, 9
11840744, 625, 225
11861536, 81, 361
11881304, 9, 81
11898984, 49, 1
11916664, 441, 0
11935380, 729, 9
11954096, 49, 36
11972828, 1, 121
11991540, 289, 4
12010256, 576, 4
12028980, 25, 81
12047704, 1, 16
12065372, 361, 100
12086172, 441, 361
12106976, 64, 64
12125696, 49, 4
12143368, 400, 289
12164168, 361, 1089
12186036, 0, 9
12202656, 9, 625
12221368, 100, 81
12241132, 64, 81
12259856, 25, 36
12278580, 25, 121
12298352, 36, 36
12317064, 1, 16
12334740, 25, 1
12352420, 256, 225
12373224, 4, 144
12391936, 441, 9
12410644, 361, 196
12431452, 49, 225
12451216, 16, 169
12470968, 676, 400
12491756, 1764, 25
12512568, 441, 576
12533372, 25, 784
12553132, 16, 256
12572908, 25, 1
12590572, 0, 1024
12610324, 81, 1225
12631132, 625, 289
12651932, 4, 784
12670640, 4, 1089
12690388, 100, 324
12711208, 0, 64
12728880, 64, 324
12748644, 16, 144
12768400, 289, 16
12788172, 16, 16
12806892, 400, 121
12827704, 289, 484
12848492, 64, 1
12866172, 100, 529
12886964, 49, 361
12906752, 1, 9
12923376, 16, 16
12942096, 64, 16
12960824, 9, 49
12978500, 1, 0
12995140, 9, 900
13013860, 225, 144
13034668, 324, 25
13054416, 16, 49
13073128, 36, 0
13090816, 4, 121
13109532, 0, 1
13126188, 9, 400
13144896, 16, 9
13162580, 324, 9
13181300, 441, 169
13202096, 1024, 49
13222892, 2601, 196
13244756, 324, 9
13263460, 0, 0
13280084, 81, 529
13299856, 16, 64
13318580, 1, 4
13335208, 0, 576
13353932, 1, 36
13371628, 36, 16
13390340, 1, 4
13406984, 256, 225
13427784, 144, 64
13447532, 169, 64
13467280, 1521, 16
13488068, 2500, 36
13508892, 1089, 400
13530732, 400, 4
13549460, 144, 576
13570256, 16, 196
13590020, 196, 16
13609768, 361, 81
13629548, 625, 4
13648260, 64, 49
13666968, 25, 64
13685688, 25, 121
13705464, 400, 16
13725212, 900, 9
13743940, 676, 225
13764744, 81, 144
13784492, 36, 36
13803220, 49, 16
13821940, 36, 1
13839624, 484, 4
13858340, 81, 256
13878100, 25, 25
13896824, 4, 16
13914504, 0, 225
13933216, 36, 16
13951932, 144, 25
13971708, 196, 16
13991476, 121, 16
14011216, 49, 25
14029952, 4, 1
14046572, 256, 900
14067372, 64, 1296
14088168, 25, 9
14105860, 9, 784
14124568, 64, 324
14144324, 225, 16
14164084, 36, 81
14182816, 9, 361
14201532, 4, 144
14220248, 16, 25
14238984, 4, 4
14255616, 36, 256
14275372, 289, 484
14296192, 49, 1
14313864, 16, 256
14333616, 36, 100
14353360, 841, 169
14374168, 1024, 289
14396004, 64, 196
14415772, 4, 81
14433460, 144, 0
14452176, 25, 324
14471936, 49, 196
14491708, 4, 16
14509376, 81, 25
14528100, 9, 25
14545796, 100, 225
14566584, 4, 289
14585300, 169, 441
14606100, 225, 1024
14627948, 36, 64
14646656, 400, 81
14666420, 25, 1
14684092, 196, 256
14704904, 361, 169
14725692, 900, 256
14746488, 225, 81
14766256, 4, 25
14783928, 49, 361
14803688, 4, 361
14822412, 484, 9
14841140, 81, 144
14860904, 1, 49
14878580, 169, 1
14897304, 0, 16
14914976, 121, 64
14934740, 36, 324
14954492, 0, 81
14972176, 256, 100
14992968, 441, 361
15013780, 100, 1
15032500, 64, 25
15051216, 9, 81
15068896, 169, 0
15087612, 196, 25
15107392, 9, 4
15124020, 4, 256
15142720, 49, 100
15162500, 49, 100
15182240, 1, 16
15199932, 196, 361
15220728, 196, 841
15241528, 100, 144
15262320, 36, 25
15281044, 144, 0
15299768, 256, 16
15319532, 144, 0
15338256, 4, 9
15354904, 0, 0
15371536, 9, 529
15390264, 169, 625
15411056, 16, 0
15428740, 36, 169
15448500, 225, 36
15468264, 1156, 25
15489072, 441, 25
15508820, 25, 36
15527536, 4, 0
15544184, 49, 1
15561872, 4, 441
15580568, 64, 121
15600336, 0, 81
15618000, 25, 144
15637776, 25, 100
15657536, 36, 0
15675228, 16, 4
15692908, 0, 25
15710576, 16, 36
15729296, 121, 121
15750088, 4, 0
15766740, 169, 400
15787548, 0, 100
15806260, 484, 64
15826024, 225, 49
15845780, 9, 64
15863464, 25, 0
15881140, 256, 676
15901956, 441, 1156
15923776, 100, 25
15943540, 144, 36
15963296, 81, 0
15980976, 121, 256
16001772, 256, 841
16022584, 16, 64
16041308, 9, 225
16060020, 1, 4
16076660, 1, 625
16095380, 4, 144
16114096, 16, 0
16131780, 9, 100
16150492, 4, 0
16167136, 25, 64
16185856, 64, 1
16203548, 121, 9
16222272, 100, 0
16240992, 81, 36
16259704, 100, 16
16279452, 1, 25
16297152, 1, 25
16314812, 64, 81
16333528, 64, 25
16352248, 36, 16
16370980, 144, 1
16389692, 441, 4
16408416, 400, 0
16427136, 121, 81
16446888, 64, 1
16464576, 324, 64
16484332, 100, 0
16503068, 100, 25
16522816, 4, 0
16539456, 81, 121
16559220, 64, 289
16578984, 25, 100
16598740, 16, 4
16616396, 100, 49
16636176, 4, 49
16653860, 144, 100
16674648, 36, 196
16694420, 196, 4
16713132, 169, 4
16731860, 9, 1
16748484, 144, 484
16769304, 25, 729
16789064, 81, 4
16806736, 9, 256
16825456, 196, 144
16846244, 81, 16
16864968, 169, 324
16885784, 225, 529
16906588, 64, 64
16925292, 1, 1
16941940, 81, 4
16959620, 81, 4
16977308, 49, 361
16997044, 0, 324
17015752, 1, 16
17033452, 9, 256
17052184, 36, 121
17071936, 361, 0
17090668, 625, 1
17109380, 324, 36
17129132, 121, 36
17148892, 1024, 4
17168668, 256, 1
17187372, 0, 49
17205060, 289, 9
17223788, 625, 784
17244572, 49, 961
17264336, 4, 225
17283056, 361, 25
17302820, 144, 9
17321540, 64, 81
17340260, 676, 0
17358980, 529, 25
17378740, 64, 1
17396428, 169, 225
17417224, 1, 441
17435956, 36, 289
17455684, 256, 64
17475448, 144, 36
17495220, 25, 1
17512892, 100, 121
17533692, 121, 484
17554488, 0, 36
17572176, 121, 256
17592976, 9, 324
17611688, 169, 100
17632500, 324, 25
17652268, 289, 1
17670988, 144, 9
17689700, 0, 9
17706348, 256, 49
17726096, 196, 0
17744816, 25, 64
17763544, 49, 169
17783292, 49, 4
17800972, 196, 144
17821788, 169, 81
17841544, 4, 0
17858180, 196, 25
17877936, 121, 25
17897708, 1, 9
17914324, 81, 729
17934092, 196, 625
17954900, 49, 36
17973612, 256, 225
17994408, 100, 324
18015208, 4, 1
18031852, 361, 144
18052660, 484, 1
18071380, 169, 25
18091144, 144, 1
18109868, 49, 0
18127540, 0, 4
18144164, 9, 144
18162908, 64, 81
18181616, 25, 16
18200340, 49, 25
18219060, 81, 25
18237792, 16, 1
18255460, 81, 0
18273144, 9, 121
18291872, 256, 169
18312660, 81, 0
18330332, 121, 36
18350100, 64, 36
18368828, 1, 4
18385460, 289, 25
18405216, 441, 36
18424984, 36, 25
18443700, 1, 16
18461372, 196, 4
18480088, 1369, 1
18499860, 1156, 36
18520672, 400, 25
18540432, 9, 36
18558112, 100, 36
18577860, 144, 225
18598652, 16, 16
18617384, 25, 0
18635068, 169, 1
18653792, 144, 0
18672500, 16, 49
18691236, 1, 81
18708904, 49, 25
18727624, 121, 64
18747360, 225, 25
18767144, 1, 0
18783796, 529, 81
18803532, 400, 49
18823300, 9, 1
18839936, 256, 49
18859696, 196, 4
18878412, 121, 144
18899224, 25, 225
18918984, 9, 64
18936660, 9, 9
18953304, 4, 25
18970992, 4, 169
18989696, 4, 144
19008416, 64, 25
19027148, 1, 0
19043784, 49, 81
19062508, 36, 100
19082276, 64, 9
19099936, 100, 81
19119692, 100, 121
19140496, 16, 4
19158188, 169, 0
19176896, 324, 1
19195620, 9, 9
19212256, 4, 0
19228908, 49, 25
19247616, 225, 144
19268424, 36, 81
19287148, 9, 100
19305864, 25, 4
19323540, 1, 4
19340168, 36, 49
19358908, 64, 16
19377620, 100, 36
19397376, 36, 25
19416108, 16, 16
19434828, 4, 1
19451468, 9, 25
19469140, 36, 4
19486820, 64, 225
19506596, 81, 16
19525300, 121, 1
19544004, 64, 9
19561708, 36, 36
19580404, 121, 36
19600176, 0, 36
19617868, 0, 4
19634492, 25, 256
19654260, 9, 121
19672984, 121, 0
19691712, 121, 4
19710424, 1, 16
19728104, 64, 16
19746808, 196, 121
19767624, 100, 1
19786328, 0, 49
19804016, 25, 9
19821704, 16, 0
19839384, 121, 25
19859144, 1, 49
19876812, 25, 1
19894508, 16, 196
19914256, 144, 169
19935052, 121, 0
19953788, 16, 9
19971464, 0, 0
19988104, 16, 169
20007856, 100, 144
20028668, 484, 36
20048416, 900, 49
20068168, 100, 16
20087948, 81, 1
20105624, 100, 4
20124340, 16, 0
20142024, 0, 4
20158656, 0, 64
20176332, 81, 0
20194020, 121, 196
20214828, 0, 25
20232504, 0, 4
20249152, 9, 4
20265780, 64, 64
20284500, 64, 529
20304256, 225, 64
20324024, 400, 25
20343780, 16, 0
20361452, 361, 144
20382248, 169, 100
20403064, 36, 1
20420748, 9, 0
20437376, 676, 256
20458176, 1, 324
20476880, 484, 81
20496664, 36, 1
20514348, 9, 64
20532008, 49, 25
20550740, 225, 49
20570508, 81, 25
20589216, 36, 4
20606888, 324, 196
20627708, 1, 576
20646428, 576, 100
20667216, 256, 25
20686984, 4, 49
20704664, 100, 1
20723384, 729, 400
20744176, 100, 324
20764996, 16, 0
20782668, 9, 81
20800340, 16, 0
20818020, 289, 9
20836740, 64, 144
20856500, 81, 36
20875216, 25, 25
20893936, 25, 0
20911616, 16, 81
20930336, 289, 144
20951152, 841, 64
20970892, 1444, 100
20992728, 361, 100
21013536, 16, 121
21033308, 144, 0
21052012, 169, 289
21072816, 0, 169
21091548, 1, 64
21109216, 64, 144
21128968, 169, 144
21149780, 25, 36
21168508, 900, 4
21187220, 625, 49
21206960, 169, 0
21225708, 1, 16
21243384, 324, 49
21263140, 81, 256
21282904, 289, 0
21301624, 196, 9
21320336, 36, 9
21338012, 0, 4
21354656, 9, 625
21373376, 484, 441
21394172, 1024, 64
21414988, 16, 1
21432668, 4, 81
21450340, 625, 100
21471132, 196, 36
21490896, 1, 49
21508576, 0, 25
21526272, 1, 1
21542900, 36, 256
21562660, 0, 289
21581376, 64, 9
21599064, 0, 0
21615704, 4, 4
21632332, 1, 169
21651048, 25, 529
21670812, 1, 1
21687472, 9, 9
21704108, 9, 64
21721776, 0, 16
21739448, 36, 289
21759228, 9, 49
21776896, 25, 25
21795612, 225, 25
21815384, 196, 4
21834104, 36, 1
21851780, 4, 16
21869456, 4, 324
21888184, 225, 64
21907940, 64, 1
21925604, 6084, 100
21947452, 12321, 576
21970332, 6561, 400
21992148, 36, 11881
22014008, 4489, 0
22033768, 7921, 0
22053512, 4225, 16129
22077456, 676, 8649
22099292, 625, 1024
22121128, 256, 12996
22144012, 1024, 441
22165856, 441, 3721
22187692, 400, 1521
22209528, 49, 9
22227216, 36, 961
22246976, 81, 64
22265696, 0, 225
22284420, 121, 900
22305212, 81, 1764
22326028, 196, 961
22346816, 0, 225
22365544, 4, 49
22383204, 81, 2025
22404008, 49, 1681
22424808, 225, 5184
22446640, 81, 20449
22468492, 1024, 3136
22491380, 361, 729
22512168, 0, 841
22530900, 16, 16
22549632, 64, 169
22569380, 441, 361
22590164, 49, 361
22609944, 4, 4
22626576, 36, 361
22646336, 0, 169
22665056, 4, 16
22682744, 9, 64
22700428, 36, 196
22720180, 4, 289
22738900, 36, 36
22757624, 0, 16
22775292, 25, 100
22795052, 16, 196
22814824, 9, 225
22833536, 0, 529
22852252, 1, 2209
22872012, 64, 49
22890740, 64, 4
22908416, 4, 361
22927120, 9, 576
22945856, 81, 324
22965628, 25, 0
22983292, 64, 0
23000988, 144, 16
23020752, 25, 4
23038424, 16, 9
23056096, 0, 361
23074824, 0, 144
23093544, 64, 16
23112272, 4, 1
23128896, 16, 289
23148668, 1, 361
23167380, 49, 4
23185056, 0, 36
23202744, 1, 25
23220432, 9, 196
23239128, 0, 1
23255772, 0, 576
23274492, 0, 25
23292188, 16, 1
23309864, 4, 100
23328576, 0, 4
23345212, 16, 289
23364992, 1, 49
23382660, 16, 4
23400340, 0, 49
23418028, 1, 144
23436736, 0, 361
23455456, 25, 144
23475220, 1, 100
23493948, 9, 0
23510572, 0, 25
23528256, 16, 121
23548020, 0, 169
23566736, 9, 0
23583380, 0, 169
23602092, 0, 25
23619788, 9, 25
23637456, 0, 169
23656172, 0, 361
23674896, 16, 169
23694660, 16, 81
23713372, 9, 0
23730016, 0, 16
23747704, 16, 196
23767468, 0, 256
23786180, 9, 0
23802804, 0, 144
23821548, 0, 36
23839220, 9, 49
23856904, 1, 121
23875616, 0, 324
23894336, 4, 144
23913044, 4, 81
23930736, 4, 0
23947384, 4, 324
23966100, 0, 100
23984812, 25, 196
24004576, 0, 1
24021232, 16, 1
24038904, 0, 4
24055544, 0, 196
24074260, 0, 676
24092988, 9, 9
24109612, 16, 0
24127296, 4, 196
24146024, 0, 36
24163696, 16, 324
24183460, 0, 36
24201132, 25, 1
24218828, 0, 25
24236500, 16, 256
24256256, 0, 324
24274980, 9, 0
24291616, 0, 100
24310324, 0, 25
24328012, 16, 36
24346744, 0, 9
24363384, 0, 196
24382100, 0, 0
24398732, 9, 0
24415380, 4, 529
24434100, 1, 484
24452812, 49, 100
24472568, 1, 64
24490264, 16, 0
24507944, 1, 64
24525620, 9, 100
24544344, 0, 144
24563056, 9, 144
24581780, 0, 16
24599460, 9, 1
24616112, 0, 361
24634816, 0, 49
24652496, 16, 400
24672252, 0, 36
24689948, 25, 1
24707620, 0, 9
24724256, 9, 324
24742988, 1, 576
24761696, 36, 16
24780420, 4, 49
24798108, 9, 9
24814748, 0, 484
24833448, 0, 361
24852168, 16, 121
24871928, 4, 9
24888584, 9, 0
24905216, 4, 256
24923940, 0, 49
24941616, 16, 400
24961376, 1, 49
24979060, 25, 1
24996740, 0, 25
25014432, 4, 256
25033136, 4, 225
25051852, 16, 81
25070568, 0, 0
25087228, 9, 1
25103848, 0, 400
25122568, 0, 256
25141296, 25, 196
25161080, 4, 36
25178740, 25, 0
25196416, 0, 4
25213052, 9, 441
25231788, 1, 625
25250500, 36, 49
25269208, 1, 81
25286904, 16, 25
25305620, 0, 25
25323296, 4, 100
25342020, 0, 196
25360748, 9, 169
25379456, 0, 49
25397140, 9, 0
25413788, 1, 361
25432484, 0, 64
25450168, 16, 441
25469928, 0, 49
25487624, 25, 0
25505312, 1, 9
25521932, 16, 256
25541700, 0, 441
25560420, 36, 49
25579136, 1, 9
25595792, 4, 4
25612424, 1, 625
25631136, 1, 441
25649852, 16, 169
25669608, 4, 36
25687304, 16, 1
25704988, 0, 9
25721612, 9, 361
25740340, 0, 576
25759056, 36, 25
25777776, 9, 49
25795460, 9, 9
25812112, 4, 441
25830812, 1, 324
25849528, 25, 144
25869288, 4, 9
25885944, 9, 0
25902576, 1, 225
25921296, 1, 49
25938976, 16, 324
25958748, 0, 36
25976432, 25, 4
25994108, 1, 16
26011792, 4, 289
26030508, 4, 225
26049212, 25, 81
26067924, 0, 4
26084584, 1, 16
26102256, 1, 196
26120976, 0, 4
26137624, 4, 441
26156348, 0, 81
26174028, 16, 4
26191704, 4, 324
26210432, 1, 100
26229144, 9, 64
26246816, 0, 81
26264492, 0, 64
26282180, 9, 144
26300900, 1, 0
26317540, 4, 400
26336264, 1, 36
26353944, 25, 0
26371628, 4, 169
26390348, 1, 9
26406992, 4, 400
26425704, 1, 81
26443376, 16, 4
26461048, 0, 225
26479784, 0, 25
26497456, 9, 400
26516180, 0, 64
26533860, 25, 0
26551548, 0, 121
26570272, 4, 4
26586896, 1, 441
26605624, 1, 49
26623304, 9, 4
26639936, 1, 361
26658660, 0, 196
26677376, 25, 144
26697144, 1, 16
26714824, 16, 0
26732500, 1, 1
26749136, 16, 361
26768892, 0, 441
26787616, 25, 16
26806336, 1, 49
26824024, 0, 49
26841696, 16, 25
26860416, 1, 25
26878108, 4, 1
26894736, 0, 484
26913464, 4, 64
26931132, 16, 4
26948824, 9, 225
26967540, 1, 196
26986252, 25, 144
27006028, 4, 36
27023704, 25, 0
27041372, 0, 4
27058016, 4, 324
27076748, 1, 576
27095456, 25, 49
27114176, 1, 100
27132892, 9, 4
27149560, 1, 225
27168256, 0, 4
27184900, 1, 484
27203624, 0, 64
27221308, 9, 4
27237932, 9, 400
27256648, 0, 361
27275376, 36, 144
27295148, 1, 49
27312816, 16, 0
27330492, 1, 9
27347136, 16, 400
27366900, 1, 484
27385612, 25, 36
27404344, 1, 1
27420984, 0, 9
27437612, 0, 441
27456332, 0, 256
27475060, 25, 225
27494836, 9, 36
27512500, 25, 0
27530172, 0, 1
27546820, 4, 400
27565536, 1, 576
27584252, 49, 64
27602980, 1, 64
27620664, 16, 4
27638328, 0, 144
27657056, 0, 4
27673692, 1, 441
27692424, 0, 64
27710100, 9, 1
27726740, 16, 484
27746500, 1, 324
27765216, 25, 9
27782896, 1, 81
27800572, 4, 36
27818264, 9, 81
27835952, 9, 36
27853620, 4, 784
27872340, 4, 81
27890032, 36, 0
27907700, 4, 169
27926424, 1, 1
27943060, 16, 400
27962816, 1, 64
27980500, 25, 1
27998164, 0, 36
28015856, 0, 100
28034588, 0, 196
28053296, 16, 169
28073068, 0, 64
28090748, 16, 1
28108424, 0, 36
28126100, 4, 256
28144828, 4, 256
28163532, 16, 81
28182252, 1, 1
28198900, 1, 9
28215532, 0, 441
28234268, 1, 256
28252976, 25, 225
28272744, 4, 36
28290420, 36, 0
28308100, 0, 4
28324724, 16, 441
28344504, 1, 441
28363220, 49, 25
28381928, 0, 16
28399608, 4, 25
28417300, 9, 49
28434988, 1, 121
28453696, 1, 256
28472424, 1, 196
28491148, 0, 49
28508820, 4, 1
28525464, 1, 361
28544172, 0, 81
28561860, 16, 400
28581616, 0, 64
28599292, 36, 1
28616984, 0, 25
28634664, 9, 121
28653380, 1, 144
28672096, 25, 121
28691864, 0, 16
28709536, 9, 0
28726172, 1, 64
28743864, 0, 100
28762572, 0, 324
28781292, 4, 100
28800020, 4, 64
28817700, 9, 0
28834332, 9, 400
28853056, 0, 169
28871780, 25, 144
28891548, 1, 4
28908180, 9, 9
28924828, 0, 144
28943552, 0, 16
28961220, 9, 225
28979944, 1, 0
28996576, 9, 0
29013224, 1, 361
29031932, 0, 289
29050656, 25, 144
29070420, 4, 49
29088108, 25, 0
29105780, 0, 9
29122420, 9, 324
29141136, 0, 529
29159852, 16, 36
29178584, 1, 36
29196252, 4, 4
29212896, 1, 400
29231612, 0, 256
29250328, 16, 196
29270116, 1, 25
29287784, 36, 1
29305460, 0, 9
29322096, 9, 400
29340828, 1, 529
29359532, 36, 64
29378252, 1, 49
29395928, 16, 4
29413616, 0, 121
29432356, 1, 4
29448976, 4, 361
29467708, 0, 64
29485388, 16, 1
29503072, 9, 256
29521776, 0, 49
29539472, 16, 289
29559216, 1, 36
29576904, 25, 1
29594572, 4, 25
29612264, 16, 121
29632028, 0, 225
29650728, 4, 0
29667376, 0, 144
29686116, 1, 64
29703780, 16, 25
29722512, 0, 81
29740188, 0, 16
29757868, 1, 400
29776572, 0, 100
29795296, 16, 4
29812992, 1, 81
29830660, 1, 36
29848336, 4, 625
29867060, 4, 64
29884752, 25, 0
29902424, 0, 169
29921144, 1, 1
29937788, 4, 441
29956504, 1, 64
29974176, 16, 9
29991848, 4, 100
30010584, 0, 4
30027216, 4, 324
30045948, 4, 64
30063628, 25, 4
30081316, 4, 256
30100020, 0, 81
30117700, 16, 361
30137464, 0, 64
30155148, 16, 0
30172816, 0, 16
30190488, 4, 196
30209220, 0, 225
30227936, 25, 81
30246656, 1, 16
30264348, 9, 0
30280996, 0, 289
30299700, 0, 49
30317380, 9, 361
30336096, 0, 36
30353784, 16, 0
30371452, 0, 64
30389140, 9, 25
30406824, 9, 676
30425548, 4, 81
30443220, 25, 1
30460896, 1, 196
30479620, 0, 0
30496260, 9, 441
30514972, 0, 64
30532664, 25, 4
30550336, 1, 144
30569052, 0, 16
30586728, 9, 361
30605468, 0, 49
30623144, 16, 0
30640820, 0, 100
30659536, 1, 4
30676176, 0, 400
30694896, 4, 25
30712584, 4, 0
30729200, 1, 400
30747936, 0, 196
30766656, 25, 100
30786416, 0, 1
30803068, 9, 0
30819712, 0, 225
30838420, 1, 25
30856096, 4, 324
30874824, 0, 16
30892496, 16, 1
30910172, 0, 64
30927856, 4, 36
30945544, 9, 676
30964276, 4, 64
30981940, 25, 1
30999624, 1, 121
31018340, 0, 0
31034976, 1, 400
31053704, 1, 49
31071384, 25, 1
31089064, 4, 121
31107776, 0, 9
31124408, 4, 289
31143156, 1, 49
31160832, 9, 1
31177460, 1, 441
31196180, 0, 361
31214900, 25, 121
31234656, 1, 49
31252340, 16, 0
31270020, 1, 81
31287704, 25, 49
31306420, 1, 121
31325132, 16, 256
31344908, 0, 121
31363628, 25, 9
31381300, 0, 1
31397952, 4, 289
31416652, 4, 81
31434340, 16, 484
31454096, 1, 49
31471784, 9, 16
31489452, 0, 25
31507136, 4, 196
31525856, 0, 169
31544576, 4, 169
31563308, 0, 25
31580984, 4, 4
31597636, 1, 361
31616336, 0, 64
31634012, 16, 361
31653776, 0, 36
31671468, 16, 1
31689132, 1, 16
31706816, 4, 196
31725524, 0, 196
31744256, 16, 100
31764020, 0, 16
31781700, 4, 16
31799392, 0, 1
31816024, 0, 529
31834732, 4, 484
31853452, 25, 196
31873220, 4, 36
31890896, 9, 36
31908572, 0, 64
31926248, 9, 169
31944976, 0, 144
31963688, 9, 100
31982416, 0, 0
31999072, 4, 1
32015712, 0, 484
32034420, 0, 324
32053128, 36, 144
32072892, 9, 16
32090576, 36, 0
32108256, 0, 4
32124888, 9, 289
32143616, 0, 400
32162344, 16, 49
32181068, 0, 36
32198756, 9, 1
32215392, 0, 441
32234088, 0, 289
32252808, 16, 100
32272580, 9, 4
32289220, 16, 1
32306900, 1, 9
32323532, 4, 64
32341224, 4, 625
32359936, 4, 64
32377628, 9, 9
32394272, 4, 484
32412988, 1, 484
32431692, 36, 121
32451452, 1, 49
32469144, 25, 0
32486824, 0, 16
32504488, 9, 144
32523212, 1, 196
32541936, 16, 100
32561708, 0, 16
32579380, 9, 1
32596032, 1, 81
32613696, 0, 81
32631380, 1, 784
32650096, 4, 49
32667788, 16, 1
32685460, 1, 121
32704184, 4, 4
32720812, 16, 289
32740584, 1, 25
32758260, 9, 0
32774904, 0, 256
32793632, 0, 16
32811308, 9, 225
32830020, 0, 1
32846664, 9, 1
32863292, 1, 400
32882016, 0, 256
32900736, 25, 196
32920500, 4, 49
32938188, 16, 0
32955860, 0, 9
32972504, 4, 324
32991204, 0, 576
33009936, 16, 25
33028656, 0, 64
33046336, 9, 4
33062980, 1, 529
33081700, 0, 361
33100416, 16, 144
33120176, 4, 16
33137860, 16, 4
33155540, 0, 9
33172180, 16, 324
33191924, 0, 400
33210660, 36, 25
33229372, 0, 9
33246016, 4, 16
33263696, 1, 144
33282432, 1, 1
33299056, 1, 400
33317784, 0, 36
33335468, 9, 4
33352100, 4, 361
33370812, 0, 361
33389524, 36, 121
33409304, 1, 64
33426984, 25, 0
33444656, 0, 16
33462348, 1, 144
33481056, 0, 144
33499776, 9, 100
33518488, 0, 0
33535148, 4, 9
33551788, 0, 576
33570488, 0, 324
33589204, 36, 196
33608972, 9, 9
33625624, 16, 1
33643292, 0, 64
33660988, 9, 36
33678664, 4, 676
33697380, 9, 100
33716104, 9, 0
33732752, 1, 196
33751472, 0, 1
33768088, 4, 400
33786808, 1, 49
33804504, 25, 4
33822176, 1, 121
33840892, 1, 1
33857528, 9, 441
33876264, 0, 81
33893944, 9, 1
33910584, 4, 484
33929300, 0, 400
33948020, 36, 144
33967776, 1, 49
33985452, 25, 0
34003144, 0, 16
34020820, 4, 144
34039540, 1, 169
34058256, 25, 100
34078024, 0, 9
34094660, 9, 0
34111308, 1, 289
34130024, 0, 64
34147708, 9, 324
34166416, 0, 36
34184092, 16, 0
34201776, 1, 64
34219460, 4, 16
34237136, 9, 576
34255860, 9, 100
34274584, 16, 0
34292268, 0, 16
34309944, 0, 256
34328668, 1, 256
34347376, 16, 121
34367136, 1, 16
34384816, 4, 4
34401460, 0, 100
34420188, 1, 1
34436816, 4, 225
34455528, 1, 4
34472188, 16, 0
34489864, 4, 361
34508580, 1, 144
34527300, 36, 64
34546028, 1, 16
34563696, 4, 25
34581376, 9, 36
34599056, 9, 81
34616736, 0, 529
34635460, 4, 16
34653136, 16, 1
34670828, 0, 64
34688504, 1, 64
34706172, 4, 576
34724904, 9, 49
34742588, 25, 1
34760244, 0, 121
34778980, 1, 0
34795624, 4, 289
34814352, 1, 25
34832024, 9, 0
34848664, 1, 441
34867392, 1, 324
34886088, 49, 100
34905860, 1, 9
34922492, 16, 1
34940184, 0, 25
34957868, 1, 49
34975536, 1, 625
34994276, 4, 49
35011944, 16, 0
35029620, 1, 121
35048348, 1, 4
35064976, 1, 400
35083696, 1, 36
35101380, 16, 1
35119048, 1, 100
35137784, 0, 1
35154416, 9, 324
35173148, 0, 36
35190832, 9, 1
35207472, 1, 484
35226180, 0, 324
35244892, 36, 144
35264668, 4, 25
35282344, 16, 1
35300016, 0, 25
35317692, 9, 144
35336416, 4, 144
35355128, 25, 100
35374896, 0, 9
35391548, 9, 0
35408184, 0, 225
35426908, 0, 36
35444580, 16, 289
35464344, 1, 9
35480984, 16, 0
35498664, 1, 64
35516336, 4, 25
35534024, 9, 625
35552748, 4, 81
35570428, 25, 1
35588116, 1, 144
35606832, 0, 4
35623456, 1, 400
35642176, 1, 36
35659864, 16, 4
35677540, 1, 121
35696260, 1, 16
35713936, 16, 289
35733708, 0, 25
35751380, 16, 0
35769060, 0, 9
35785700, 4, 289
35804420, 0, 400
35823140, 16, 81
35841852, 4, 64
35859544, 9, 9
35876180, 1, 324
35894892, 0, 196
35913616, 25, 144
35933388, 1, 4
35950028, 16, 0
35967700, 0, 25
35985384, 1, 100
36004100, 0, 256
36022816, 16, 100
36042572, 1, 49
36060268, 9, 0
36076896, 0, 121
36095620, 4, 1
36112264, 4, 289
36130988, 0, 36
36148652, 9, 0
36165304, 4, 400
36184004, 0, 289
36202736, 36, 81
36221464, 1, 9
36238100, 16, 1
36255784, 1, 169
36274504, 0, 25
36292176, 4, 441
36310908, 0, 81
36328588, 25, 0
36346268, 1, 121
36364980, 1, 0
36381604, 4, 361
36400344, 1, 49
36418020, 25, 4
36435696, 1, 100
36454428, 0, 4
36471056, 9, 324
36489784, 0, 36
36507464, 9, 1
36524112, 4, 400
36542816, 0, 324
36561528, 25, 121
36581288, 1, 36
36598984, 16, 0
36616656, 0, 9
36633300, 9, 289
36652016, 0, 529
36670740, 16, 16
36689460, 4, 49
36707144, 4, 4
36723792, 1, 441
36742500, 0, 361
36761212, 16, 144
36780968, 1, 25
36798668, 16, 1
36816328, 0, 9
36832976, 9, 289
36851684, 0, 441
36870412, 16, 36
36889140, 4, 64
36906828, 4, 9
36923472, 0, 324
36942184, 0, 225
36960900, 16, 121
36980652, 1, 16
36998344, 9, 0
37014972, 0, 36
37032656, 4, 49
37050332, 1, 529
37069060, 4, 64
37086756, 16, 1
37104420, 0, 64
37122108, 1, 36
37139780, 1, 529
37158496, 4, 49
37176176, 16, 1
37193856, 1, 100
37212588, 1, 0
37229216, 4, 324
37247936, 1, 36
37265628, 16, 1
37283304, 1, 196
37302020, 1, 49
37319700, 4, 289
37338424, 0, 49
37356108, 9, 0
37372740, 1, 225
37391464, 1, 64
37409140, 16, 256
37428900, 0, 36
37446584, 16, 1
37464268, 0, 16
37481940, 4, 225
37500648, 0, 289
37519380, 16, 64
37538104, 1, 16
37555784, 4, 0
37572420, 0, 196
37591144, 0, 36
37608816, 9, 361
37627540, 0, 64
37645220, 25, 0
37662904, 4, 100
37681624, 1, 0
37698252, 1, 324
37716980, 1, 49
37734668, 4, 4
37751292, 4, 361
37770012, 0, 225
37788736, 25, 121
37808508, 4, 9
37825136, 16, 0
37842820, 0, 36
37860504, 4, 49
37878176, 0, 625
37896896, 9, 49
37914580, 16, 0
37932256, 1, 64
37949940, 0, 25
37967616, 9, 484
37986340, 4, 64
38004020, 25, 4
38021704, 0, 121
38040424, 1, 1
38057068, 9, 400
38075780, 1, 64
38093460, 16, 4
38111132, 4, 121
38129864, 0, 16
38147528, 9, 289
38166260, 0, 49
38183932, 16, 0
38201628, 1, 121
38220340, 1, 0
38236980, 1, 324
38255704, 1, 36
38273384, 9, 4
38290012, 1, 289
38308736, 0, 169
38327456, 36, 100
38347220, 4, 9
38363860, 9, 0
38380500, 0, 225
38399224, 0, 36
38416900, 9, 361
38435624, 1, 36
38453308, 9, 0
38469936, 1, 256
38488648, 0, 64
38506324, 25, 289
38526104, 0, 81
38543788, 25, 0
38561468, 0, 25
38579136, 4, 169
38597860, 0, 225
38616572, 25, 100
38636336, 1, 16
38654024, 9, 0
38670664, 0, 64
38688340, 1, 36
38706016, 4, 576
38724748, 1, 64
38742432, 25, 1
38760100, 4, 81
38777776, 0, 4
38794416, 4, 484
38813132, 4, 100
38831860, 16, 25
38850580, 0, 4
38867220, 1, 121
38885936, 1, 576
38904656, 9, 16
38922348, 16, 4
38940028, 0, 64
38957700, 1, 81
38975372, 1, 625
38994108, 9, 36
39011784, 25, 0
39029448, 0, 100
39048172, 0, 0
39064824, 4, 324
39083548, 0, 36
39101220, 9, 1
39117876, 9, 361
39136580, 0, 289
39155292, 25, 64
39174016, 0, 4
39190656, 16, 0
39208336, 0, 144
39227056, 0, 25
39244728, 4, 361
39263468, 0, 49
39281140, 16, 0
39298820, 0, 100
39317552, 1, 1
39334180, 1, 324
39352896, 0, 36
39370576, 9, 4
39387212, 9, 324
39405940, 0, 225
39424652, 25, 121
39444424, 1, 16
39462108, 16, 1
39479780, 0, 4
39496424, 9, 289
39515128, 1, 441
39533856, 25, 81
39552584, 1, 64
39570260, 9, 1
39586892, 4, 361
39605616, 0, 169
39624328, 25, 121
39644108, 4, 1
39660748, 16, 0
39678424, 0, 25
39696108, 1, 100
39714804, 0, 196
39733536, 9, 144
39752256, 4, 49
39769944, 9, 0
39786576, 1, 289
39805292, 0, 100
39824008, 9, 169
39842732, 0, 0
39859384, 4, 4
39876024, 1, 361
39894736, 1, 256
39913452, 25, 81
39932184, 9, 1
39948828, 4, 0
39965448, 0, 324
39984172, 0, 324
40002896, 16, 121
40022660, 1, 36
40040340, 16, 1
40058028, 0, 9
40074672, 4, 289
40093380, 0, 484
40112088, 16, 25
40130828, 1, 49
40148520, 1, 4
40165136, 1, 400
40183860, 0, 289
40202576, 25, 169
40222348, 4, 25
40240016, 16, 0
40257708, 0, 4
40274348, 9, 324
40293060, 0, 484
40311768, 25, 25
40330500, 4, 36
40348180, 4, 16
40365852, 0, 100
40384584, 1, 4
40401220, 4, 324
40419936, 1, 49
40437620, 9, 1
40454272, 16, 361
40474016, 0, 289
40492740, 16, 16
40511440, 0, 81
40529144, 1, 49
40546824, 9, 16
40564488, 4, 144
40583224, 1, 144
40601936, 9, 100
40620660, 0, 0
40637300, 4, 9
40653952, 0, 400
40672664, 0, 289
40691376, 25, 121
40711132, 4, 9
40727788, 25, 0
40745460, 0, 64
40763136, 9, 16
40780824, 0, 576
40799544, 9, 64
40817228, 16, 0
40834900, 4, 121
40853624, 0, 0
40870256, 1, 324
40888976, 0, 36
40906656, 9, 4
40923304, 1, 289
40942008, 0, 256
40960728, 25, 121
40980512, 1, 25
40998192, 16, 1
41015868, 1, 9
41032500, 4, 289
41051216, 1, 441
41069940, 9, 49
41087612, 0, 64
41105292, 4, 25
41122976, 4, 169
41141700, 1, 169
41160408, 9, 121
41179156, 1, 9
41195776, 16, 0
41213472, 4, 196
41232184, 0, 36
41249868, 9, 324
41268584, 0, 64
41286268, 0, 1
41302888, 36, 225
41322664, 49, 81
41341380, 25, 16
41360100, 0, 36
41377772, 0, 0
41394436, 1, 1
41411056, 9, 784
41429784, 36, 2401
41450580, 64, 784
41470328, 1156, 100
41492156, 6084, 0
41511924, 1225, 49
41532736, 9, 1089
41552492, 36, 1156
41573288, 25, 256
41593076, 361, 529
41613872, 64, 289
41633612, 16, 169
41653372, 81, 324
41673124, 9, 1936
41692880, 196, 0
41711596, 361, 0
41730328, 3969, 169
41752164, 841, 6724
41774000, 529, 676
41794812, 121, 4096
41816656, 900, 64
41836412, 16, 225
41856172, 1, 2809
41875924, 256, 6724
41897784, 144, 4
41916488, 25, 4761
41937300, 0, 961
41956016, 25, 169
41975776, 9, 49
41993456, 36, 1024
42014252, 0, 784
42032976, 144, 196
42053776, 9, 1
42070432, 64, 441
42090180, 225, 729
42110972, 196, 225
42131780, 49, 64
42150500, 1, 81
42168180, 4, 36
42185872, 16, 36
42204584, 9, 64
42222256, 36, 81
42240976, 16, 0
42258664, 0, 0
42275300, 25, 36
42294020, 4, 4
42310660, 9, 256
42329380, 16, 144
42349144, 100, 16
42368892, 0, 0
42385544, 1, 1
42402180, 64, 256
42421932, 16, 16
42440652, 1, 144
42459384, 0, 64
42477044, 0, 196
42495784, 1, 25
42513464, 4, 16
42531152, 1, 400
42549852, 9, 81
42567544, 36, 25
42586260, 1, 64
42603944, 4, 49
42621620, 4, 196
42640332, 1, 36
42658024, 4, 100
42676736, 81, 529
42696500, 1, 4
42713152, 36, 1
42730828, 25, 9
42748512, 9, 49
42766184, 9, 225
42784900, 4, 81
42802584, 1, 9
42819216, 16, 576
42838964, 0, 361
42857696, 25, 9
42875376, 25, 81
42894096, 16, 289
42913860, 4, 324
42932584, 9, 49
42950256, 64, 25
42968984, 0, 484
42987700, 16, 400
43007456, 144, 144
43028260, 1, 81
43045940, 0, 64
43063620, 9, 36
43081304, 1, 529
43100016, 4, 100
43118748, 36, 16
43137460, 0, 0
43154096, 0, 324
43172804, 64, 289
43192588, 9, 36
43210268, 9, 100
43228992, 16, 729
43248740, 25, 441
43268516, 16, 9
43286180, 4, 81
43303852, 49, 324
43323624, 9, 36
43341296, 0, 0
43357940, 1, 36
43375632, 0, 64
43393312, 25, 1
43410984, 36, 36
43429688, 25, 25
43448424, 4, 16
43466108, 4, 49
43483776, 9, 441
43502496, 4, 81
43520192, 9, 36
43537852, 1, 1521
43557612, 1, 2401
43577376, 64, 784
43597136, 64, 121
43616888, 36, 9
43634576, 0, 289
43653296, 16, 729
43673060, 0, 49
43690736, 0, 81
43708412, 4, 64
43726104, 16, 100
43745844, 16, 81
43764572, 4, 169
43783304, 64, 4
43800996, 9, 169
43819708, 4, 4
43836320, 9, 441
43855064, 9, 81
43872736, 9, 144
43891460, 16, 0
43909136, 16, 100
43928908, 9, 64
43946584, 0, 196
43965292, 25, 196
43985060, 49, 16
44003772, 0, 144
44022500, 1, 225
44041208, 16, 25
44059948, 25, 1
44077608, 4, 25
44095296, 49, 9
44112988, 121, 49
44132744, 9, 64
44150412, 0, 225
44169140, 9, 196
44187868, 0, 0
44204496, 64, 49
44223208, 25, 121
44242984, 0, 81
44260664, 9, 25
44278336, 0, 0
44294968, 9, 81
44312668, 25, 25
44331388, 4, 16
44349056, 36, 64
44367772, 9, 49
44385476, 0, 289
44404184, 4, 64
44421864, 1, 361
44440568, 0, 289
44459296, 9, 225
44478012, 4, 81
44495708, 1, 0
44512336, 0, 289
44531068, 9, 676
44549776, 4, 256
44568492, 1, 49
44586180, 25, 1
44603856, 0, 324
44622580, 4, 729
44641300, 64, 1
44658984, 121, 1
44677704, 4, 1
44694328, 36, 196
44714096, 9, 400
44732820, 16, 9
44750496, 0, 121
44769220, 0, 81
44786912, 36, 16
44805616, 9, 25
44823304, 25, 441
44843068, 1, 225
44861780, 25, 36
44880496, 0, 36
44898188, 9, 225
44916900, 100, 25
44936664, 4, 576
44955372, 25, 484
44975148, 1, 0
44991792, 16, 25
45010504, 81, 169
45030260, 9, 64
45047940, 9, 25
45065628, 0, 9
45082264, 121, 961
45103052, 16, 625
45122820, 36, 4
45140504, 16, 1
45158176, 16, 0
45175868, 0, 4
45192500, 0, 529
45211216, 16, 361
45230968, 121, 1
45249708, 1, 0
45266348, 9, 1
45282984, 36, 144
45302736, 9, 49
45320420, 25, 4
45338096, 1, 100
45356812, 36, 144
45376580, 0, 16
45394260, 1, 64
45411932, 49, 0
45429616, 121, 169
45450428, 0, 144
45469136, 1, 361
45487844, 0, 225
45506588, 64, 36
45525304, 16, 1
45542976, 16, 9
45560652, 0, 36
45578344, 4, 1089
45598108, 121, 625
45618896, 100, 196
45639704, 9, 256
45658420, 1, 36
45676088, 1, 5476
45695836, 121, 25281
45718724, 841, 7396
45740576, 529, 256
45761380, 1, 484
45780088, 0, 1156
45799856, 100, 5184
45821684, 169, 961
45842500, 100, 9
45861224, 0, 9
45877856, 100, 100
45898656, 49, 9
45916344, 0, 16
45934024, 9, 16
45951696, 49, 81
45970412, 0, 1
45987056, 144, 169
46007860, 1, 16
46025536, 81, 0
46043228, 4, 25
46060916, 9, 25
46078576, 1, 4
46095216, 1, 441
46113940, 0, 256
46132660, 0, 49
46150336, 25, 169
46170092, 4, 169
46188824, 16, 1
46206504, 36, 4
46224168, 121, 289
46244988, 16, 100
46264752, 9, 0
46281380, 9, 25
46299044, 36, 64
46317784, 100, 289
46338588, 16, 4
46356256, 4, 1
46372896, 4, 4
46389544, 25, 81
46408252, 16, 121
46428024, 36, 9
46445704, 1, 64
46463384, 9, 81
46481060, 4, 36
46498728, 25, 144
46518500, 9, 289
46537212, 25, 4
46554892, 1, 36
46572584, 0, 36
46590260, 4, 64
46607940, 16, 25
46626656, 49, 441
46646428, 0, 25
46664108, 9, 16
46681792, 4, 49
46699460, 36, 49
46718192, 4, 25
46735864, 49, 169
46755616, 25, 25
46774348, 0, 0
46790988, 0, 4
46807616, 25, 169
46827376, 16, 225
46847136, 4, 16
46864812, 16, 256
46884580, 9, 64
46902244, 36, 25
46920992, 16, 9
46938684, 9, 324
46957372, 0, 121
46976108, 1, 225
46994820, 121, 49
47014576, 25, 1
47032240, 9, 81
47049940, 0, 169
47068656, 9, 9
47085300, 49, 1
47102968, 100, 81
47122736, 36, 81
47141468, 4, 1
47158108, 100, 196
47178912, 144, 144
47199704, 9, 49
47217384, 9, 324
47236084, 0, 81
47253780, 64, 121
47273544, 25, 49
47292268, 1, 0
47308900, 49, 1
47326576, 4, 100
47345296, 9, 64
47362972, 1, 289
47381708, 0, 169
47400420, 25, 1
47418100, 25, 4
47435788, 1, 196
47454500, 16, 324
47474256, 0, 0
47490896, 0, 1
47507544, 4, 121
47526256, 1, 16
47543940, 100, 100
47564736, 36, 121
47584508, 0, 81
47602180, 0, 196
47620900, 9, 529
47639628, 49, 49
47658348, 16, 9
47676024, 4, 100
47694740, 1, 169
47713468, 16, 4
47731136, 1, 4
47747780, 4, 0
47764412, 4, 121
47783148, 9, 529
47801860, 4, 81
47819540, 64, 9
47837228, 4, 36
47854908, 1, 25
47872584, 16, 441
47892344, 0, 64
47910028, 16, 1
47927704, 1, 1
47944340, 16, 100
47964092, 9, 100
47982820, 16, 36
48001540, 9, 0
48018180, 4, 16
48035876, 9, 196
48054580, 0, 49
48072252, 25, 169
48092020, 1, 36
48109700, 9, 49
48127376, 4, 64
48145060, 1, 121
48163772, 9, 9
48180424, 4, 169
48199136, 4, 64
48216816, 1, 4
48233456, 16, 100
48253220, 9, 81
48270896, 25, 81
48289628, 36, 49
48308336, 0, 9
48324976, 4, 100
48343696, 4, 0
48360336, 1, 484
48379072, 0, 49
48396740, 0, 16
48414424, 9, 9
48431060, 36, 196
48450828, 4, 25
48468508, 81, 25
48487228, 9, 9
48503860, 9, 169
48522588, 4, 81
48540252, 16, 81
48558972, 0, 169
48577708, 9, 256
48596432, 4, 9
48613064, 0, 225
48631776, 25, 225
48651548, 4, 64
48669228, 9, 1
48685848, 121, 961
48706664, 169, 2916
48728496, 256, 169
48749300, 121, 100
48770100, 9, 49
48787788, 0, 4
48804416, 9, 36
48822088, 100, 100
48842908, 4, 225
48861616, 4, 16
48879300, 36, 0
48896972, 9, 121
48915704, 1, 49
48933384, 9, 64
48951064, 1, 0
48967700, 9, 361
48986420, 1, 324
49005128, 16, 625
49024900, 36, 324
49044664, 1, 25
49062328, 9, 676
49081060, 49, 225
49100816, 81, 0
49118496, 1, 169
49137216, 4, 100
49155940, 81, 4
49173628, 9, 1
49190268, 1, 64
49207932, 9, 1225
49227704, 49, 1225
49248504, 36, 49
49267228, 25, 16
49285944, 4, 1
49302576, 16, 81
49321308, 1, 16
49338976, 1, 256
49357688, 64, 441
49377464, 121, 225
49398260, 25, 25
49416976, 16, 36
49435708, 0, 324
49454416, 25, 289
49474176, 49, 100
49493932, 16, 196
49513704, 4, 81
49531384, 25, 576
49551132, 0, 576
49569864, 81, 0
49587544, 36, 9
49605208, 256, 361
49626012, 25, 196
49645792, 16, 9
49663460, 1, 49
49681132, 64, 16
49699868, 1, 49
49717544, 36, 121
49737296, 4, 256
49756016, 25, 64
49774752, 0, 16
49792420, 4, 36
49810100, 1, 841
49828816, 9, 1089
49848580, 121, 36
49868332, 9, 0
49884980, 4, 144
49903700, 1, 196
49922420, 25, 64
49941132, 25, 4
49958812, 9, 81
49976508, 25, 1
49994176, 0, 0
50010824, 4, 225
50029536, 4, 36
50047220, 49, 121
50066992, 1, 1
50083616, 16, 9
50101304, 1, 144
50120020, 16, 0
50137696, 1, 36
50155376, 0, 121
50174108, 9, 100
50192824, 9, 36
50210504, 16, 4
50228184, 36, 121
50247940, 4, 289
50266664, 4, 0
50283304, 4, 4
50299948, 9, 144
50318668, 1, 49
50336332, 16, 169
50356100, 25, 169
50375868, 144, 49
50395620, 9, 36
50413300, 1, 4
50429928, 0, 0
50446588, 0, 16
50464256, 9, 144
50482984, 36, 16
50501696, 25, 9
50519380, 16, 64
50538096, 1, 36
50555788, 16, 64
50574504, 16, 0
50592176, 9, 25
50609868, 4, 49
50627536, 25, 0
50645216, 36, 64
50663944, 0, 121
50682660, 1, 100
50701372, 9, 0
50718016, 1, 144
50736740, 9, 121
50755456, 36, 49
50774180, 25, 4
50791860, 1, 9
50808500, 0, 225
50827216, 1, 16
50844896, 9, 729
50863624, 4, 900
50882340, 49, 196
50902108, 36, 16
50920824, 9, 64
50938484, 4, 841
50957204, 64, 1089
50978024, 100, 9
50996736, 4, 169
51015456, 1, 196
51034188, 9, 81
51051856, 36, 289
51071624, 36, 1
51089296, 9, 36
51106980, 16, 64
51125692, 4, 225
51144412, 9, 16
51162100, 1, 1
51178744, 0, 1
51195384, 0, 81
51213056, 1, 289
51231788, 9, 25
51249472, 25, 4
51267144, 4, 100
51285856, 0, 25
51303544, 1, 361
51322264, 9, 324
51340972, 64, 16
51359684, 16, 324
51379468, 1, 324
51398196, 1, 9
51414816, 1, 529
51433540, 1, 1024
51453304, 0, 289
51472016, 16, 196
51491768, 4, 361
51510508, 4, 196
51529216, 0, 225
51547940, 9, 324
51566668, 0, 1
51583308, 36, 324
51603056, 4, 289
51621768, 25, 7396
51642576, 256, 27556
51665440, 2116, 169
51687276, 1024, 11236
51711216, 144, 3136
51733044, 169, 729
51753860, 81, 2809
51774660, 25, 100
51794416, 4, 3364
51814176, 9, 441
51832904, 225, 81
51852668, 25, 0
51870340, 121, 4
51889052, 64, 4
51906740, 9, 1
51923388, 25, 121
51943140, 81, 144
51962904, 1, 1
51979544, 36, 49
51998256, 9, 1
52014900, 9, 100
52033624, 1, 36
52051292, 64, 441
52071060, 1, 100
52089772, 49, 49
52108504, 25, 169
52128244, 0, 144
52146976, 64, 36
52165708, 81, 16
52184428, 0, 1
52201056, 1, 81
52218740, 100, 36
52238504, 25, 0
52256180, 1, 36
52273860, 36, 49
52292572, 64, 16
52311304, 9, 225
52330028, 64, 64
52348740, 100, 81
52368496, 25, 121
52388264, 25, 4
52405940, 1, 9
52422564, 81, 64
52441296, 9, 64
52458972, 289, 4
52477692, 0, 100
52496416, 36, 121
52516176, 9, 0
52532816, 100, 225
52553620, 729, 9
52572336, 100, 100
52593132, 16, 36
52611848, 0, 16
52629548, 4, 49
52647224, 4, 121
52665936, 100, 9
52684660, 169, 36
52704420, 0, 64
52722104, 49, 289
52741860, 49, 144
52761620, 81, 0
52779300, 16, 81
52798016, 4, 25
52815696, 4, 4
52832336, 4, 64
52850016, 0, 196
52868736, 0, 0
52885376, 0, 0
52902020, 121, 324
52922820, 100, 400
52943620, 1, 9
52960252, 144, 81
52980024, 289, 16
52999776, 121, 4
53018504, 9, 9
53035144, 16, 1
53052816, 100, 36
53072576, 25, 9
53090240, 64, 0
53107936, 81, 100
53127708, 1, 4
53144352, 1, 4
53160984, 49, 361
53180740, 16, 361
53200492, 25, 16
53219216, 361, 9
53237948, 169, 1
53256652, 36, 16
53275372, 64, 16
53294104, 4, 4
53310736, 25, 196
53330496, 4, 196
53349220, 0, 1
53365856, 49, 0
53383548, 169, 4
53402256, 121, 16
53422020, 9, 16
53439700, 81, 4
53457368, 324, 361
53478176, 36, 225
53497940, 100, 0
53516660, 16, 9
53534336, 49, 4
53552016, 1, 25
53569696, 36, 0
53587380, 256, 169
53608180, 441, 1
53626904, 100, 16
53646672, 0, 25
53664344, 0, 9
53680980, 4, 144
53699700, 16, 4
53717376, 36, 441
53737132, 49, 64
53755844, 100, 4
53774584, 25, 1
53792256, 1, 49
53809936, 576, 144
53830740, 100, 576
53851544, 16, 1
53869216, 81, 324
53888952, 1024, 64
53909772, 1225, 64
53930588, 36, 0
53948264, 1521, 196
53970100, 676, 225
53990900, 9, 1
54007540, 324, 225
54028348, 36, 49
54047060, 169, 16
54066816, 256, 9
54085528, 9, 0
54102192, 25, 25
54120892, 49, 4
54138580, 529, 9
54157292, 81, 16
54176024, 9, 16
54193716, 36, 9
54211376, 196, 9
54230104, 100, 121
54250908, 9, 256
54269616, 81, 64
54288324, 144, 1
54307052, 16, 64
54325776, 729, 64
54345532, 144, 100
54366344, 9, 36
54384024, 9, 196
54402732, 169, 36
54422492, 49, 0
54440188, 4, 4
54456828, 64, 196
54476568, 121, 256
54497388, 16, 9
54515056, 64, 169
54534808, 1, 49
54552492, 64, 4
54570180, 64, 49
54588900, 1, 0
54605536, 169, 49
54625320, 900, 16
54645056, 289, 81
54664820, 9, 4
54681464, 1, 0
54698108, 81, 64
54716820, 0, 36
54734496, 64, 121
54754256, 144, 121
54775068, 16, 16
54793768, 225, 196
54814576, 49, 4
54832268, 49, 1
54849940, 361, 4
54868648, 1369, 100
54890484, 1089, 361
54912352, 4, 1
54928972, 225, 225
54949780, 0, 169
54968504, 100, 16
54988260, 0, 1
55004896, 64, 144
55024660, 49, 121
55044428, 121, 0
55063140, 196, 4
55081864, 9, 0
55098508, 9, 16
55116180, 121, 16
55135932, 4, 36
55153604, 49, 196
55173384, 841, 16
55193132, 1849, 64
55213932, 25, 9
55231628, 1, 100
55250340, 0, 4
55266968, 529, 36
55286732, 324, 121
55307548, 81, 121
55327296, 289, 25
55347060, 196, 25
55366824, 25, 9
55384500, 49, 0
55402180, 64, 81
55420892, 49, 25
55439620, 121, 0
55458344, 225, 0
55477060, 289, 81
55496816, 64, 25
55515536, 64, 0
55533212, 144, 49
55552968, 36, 4
55570672, 1, 1
55587288, 144, 25
55607056, 0, 49
55624744, 100, 121
55645536, 25, 144
55665296, 36, 9
55682972, 289, 0
55701704, 529, 1
55720424, 25, 25
55739140, 36, 9
55756832, 121, 9
55775556, 81, 0
55793216, 25, 9
55810904, 1, 100
55829628, 25, 36
55848344, 196, 0
55867060, 121, 64
55886816, 1, 36
55904500, 81, 81
55923228, 25, 121
55942976, 1225, 25
55963776, 900, 64
55983536, 1, 0
56000176, 81, 100
56019932, 36, 49
56038660, 144, 36
56058424, 225, 9
56077140, 169, 4
56095868, 25, 81
56114584, 9, 9
56131216, 25, 36
56149936, 9, 0
56166584, 144, 4
56185292, 9, 49
56202968, 784, 81
56222736, 100, 144
56243540, 196, 25
56263288, 0, 0
56279940, 169, 1
56298676, 1, 4
56315312, 49, 1
56332984, 144, 256
56353764, 441, 256
56374580, 841, 81
56394328, 196, 16
56414096, 100, 16
56433860, 36, 0
56451532, 16, 4
56469224, 1, 121
56487924, 25, 81
56506656, 100, 16
56526416, 1, 49
56544088, 0, 169
56562832, 16, 4
56580504, 121, 225
56601296, 256, 121
56622096, 16, 64
56640816, 100, 4
56659544, 16, 9
56677208, 100, 36
56696980, 0, 0
56713624, 196, 64
56733384, 289, 36
56753132, 144, 4
56771868, 81, 9
56789544, 49, 121
56809296, 361, 100
56830100, 676, 16
56849860, 25, 0
56867532, 169, 1
56886252, 100, 1
56904984, 36, 0
56922660, 25, 144
56942420, 4, 121
56961136, 0, 25
56978820, 400, 196
56999620, 361, 49
57019372, 16, 0
57037064, 16, 16
57055792, 36, 4
57073464, 49, 4
57091160, 196, 36
57110904, 16, 36
57129620, 9, 9
57146236, 25, 81
57164980, 1, 25
57182652, 100, 49
57202416, 16, 36
57221144, 100, 25
57240900, 169, 121
57261688, 81, 0
57279372, 36, 4
57297072, 4, 49
57314736, 49, 64
57333464, 121, 49
57353212, 121, 81
57372988, 36, 64
57391704, 1, 1
57408348, 1, 16
57426036, 49, 25
57444752, 9, 0
57461368, 121, 81
57481124, 36, 64
57499860, 9, 1
57516512, 441, 225
57537296, 1156, 196
57559140, 36, 16
57577856, 36, 225
57597616, 4, 4
57614256, 0, 9
57630908, 400, 81
57650656, 900, 16
57670424, 9, 9
57687068, 25, 64
57705784, 100, 4
57724496, 529, 16
57744260, 400, 25
57764020, 16, 100
57783776, 361, 25
57803544, 625, 4
57822256, 100, 0
57840980, 169, 16
57860740, 169, 4
57879452, 36, 16
57898180, 0, 16
57915852, 16, 81
57934576, 4, 64
57952252, 9, 81
57969956, 256, 4
57988664, 196, 0
58007372, 64, 49
58026104, 0, 25
58043780, 49, 16
58062508, 25, 4
58080168, 0, 49
58097872, 36, 4
58115536, 64, 256
58135300, 36, 36
58154020, 16, 1
58171696, 144, 0
58190416, 100, 49
58210184, 256, 49
58229944, 196, 36
58249700, 36, 16
58268412, 225, 9
58287136, 225, 16
58306904, 256, 9
58325612, 81, 1
58343304, 4, 1
58359944, 0, 49
58377616, 169, 25
58397376, 169, 169
58418176, 0, 1
58434832, 9, 49
58452508, 64, 25
58471216, 4, 0
58487868, 1, 256
58506580, 81, 144
58526324, 64, 36
58545052, 81, 64
58563788, 121, 9
58582500, 1, 9
58599136, 81, 4
58616812, 4, 16
58634512, 25, 196
58654256, 9, 49
58671940, 36, 9
58689628, 0, 25
58707300, 16, 81
58726012, 196, 324
58746812, 64, 9
58764504, 4, 36
58782184, 1, 9
58798820, 100, 4
58817532, 36, 49
58836256, 49, 1
58853936, 100, 324
58874744, 81, 81
58893468, 64, 49
58912180, 0, 49
58929852, 81, 0
58947536, 16, 144
58967300, 81, 36
58986024, 144, 1
59004732, 4, 49
59022420, 196, 0
59041144, 16, 16
59059860, 0, 4
59076500, 49, 121
59096268, 64, 121
59116016, 36, 0
59133696, 144, 64
59153464, 144, 16
59173228, 49, 1
59190900, 64, 4
59208576, 36, 1
59226272, 9, 36
59243940, 144, 64
59263708, 4, 1
59280324, 400, 1
59299060, 289, 25
59318828, 121, 1
59337536, 144, 36
59357304, 9, 144
59376028, 0, 16
59393708, 1, 0
59410344, 0, 4
59426992, 36, 9
59444664, 49, 9
59462332, 49, 169
59482092, 289, 25
59501868, 144, 9
59520576, 1, 4
59537216, 100, 0
59555944, 529, 49
59575696, 529, 64
59595456, 225, 36
59615212, 169, 16
59634988, 196, 1
59653700, 144, 16
59673460, 0, 1
59690108, 100, 9
59708832, 4, 9
59725464, 256, 225
59746248, 100, 361
59767068, 361, 4
59785768, 576, 196
59806576, 0, 169
59825300, 49, 169
59845068, 256, 64
59864820, 16, 0
59882488, 225, 4
59901224, 49, 16
59919932, 169, 9
59938652, 36, 9
59956340, 196, 36
59976104, 225, 81
59995860, 121, 1
60014572, 0, 16
60032272, 289, 9
60050988, 289, 9
60069704, 484, 1
60088420, 900, 16
60108184, 64, 49
60126900, 9, 16
60144572, 16, 169
60164340, 16, 121
60184104, 144, 4
60202816, 169, 9
60221540, 144, 100
60242348, 1, 4
60258980, 4, 25
60276660, 49, 64
60295384, 9, 9
60312016, 256, 144
60332816, 400, 144
60353624, 225, 49
60373376, 1369, 49
60394180, 81, 81
60412896, 36, 25
60431628, 64, 16
60450348, 576, 4
60469064, 400, 1
60487784, 36, 0
60505472, 16, 1
60523140, 25, 81
60541852, 144, 49
60561628, 36, 25
60580332, 0, 4
60596972, 4, 1
60613616, 1, 81
60631308, 36, 16
60650028, 36, 64
60668736, 25, 0
60686428, 0, 9
60703080, 64, 64
60721784, 25, 81
60740496, 225, 49
60760252, 1024, 64
60781052, 49, 25
60799784, 1681, 81
60820584, 81, 121
60840348, 576, 1
60859060, 36, 81
60877776, 225, 16
60897540, 16, 9
60915224, 225, 49
60934976, 64, 25
60953704, 400, 0
60972428, 361, 9
60991140, 16, 64
61009852, 144, 25
61029628, 16, 1
61047304, 324, 1
61066008, 361, 49
61085784, 4, 49
61103464, 16, 4
61121136, 36, 36
61139852, 64, 64
61158580, 784, 100
61179380, 400, 289
61200180, 196, 81
61219944, 49, 1
61237624, 4, 64
61255300, 1, 49
61272976, 0, 9
61289620, 9, 81
61307308, 1, 289
61326020, 16, 36
61344736, 36, 1
61362428, 9, 25
61380104, 1, 36
61397788, 9, 289
61416504, 0, 16
61434180, 4, 4
61450820, 1, 144
61469536, 1, 16
61487228, 0, 144
61505944, 9, 36
61523624, 1, 1
61540260, 9, 169
61558980, 0, 144
61577684, 676, 64
61597452, 1849, 169
61619292, 256, 81
61639052, 0, 2500
61658812, 16, 3969
61679596, 196, 625
61700420, 225, 4624
61722232, 16, 18225
61744088, 576, 784
61764892, 676, 1089
61786724, 144, 256
61807528, 49, 4
61825228, 49, 576
61844976, 49, 16
61863696, 0, 9
61880340, 81, 4
61898020, 4, 0
61914664, 16, 36
61933380, 400, 16
61953140, 841, 4
61971864, 49, 1
61989540, 0, 225
62008252, 0, 49
62025944, 4, 196
62044652, 1, 100
62063380, 0, 0
62080020, 4, 144
62098752, 0, 1
62115384, 16, 196
62135148, 1, 25
62152828, 25, 9
62170504, 0, 16
62188180, 1, 25
62205852, 1, 324
62224588, 1, 16
62242260, 4, 4
62258912, 1, 196
62277620, 0, 36
62295312, 9, 121
62314028, 0, 25
62331696, 9, 4
62348340, 4, 121
62367064, 0, 81
62384736, 9, 144
62403464, 0, 64
62421148, 9, 4
62437784, 9, 196
62456500, 0, 196
62475208, 16, 64
62493948, 1, 36
62511616, 0, 0
62528260, 9, 144
62546976, 64, 16
62565696, 144, 121
62586496, 25, 49
62605212, 0, 81
62622904, 1, 1
62639536, 1, 4
62656184, 1, 64
62673856, 0, 400
62692580, 1, 25
62710256, 1, 4
62726896, 1, 196
62745620, 0, 196
62764336, 16, 36
62783060, 9, 9
62799704, 4, 0
62816352, 4, 256
62835064, 0, 289
62853776, 16, 36
62872492, 9, 36
62890184, 0, 9
62906812, 4, 144
62925544, 1, 100
62944248, 16, 81
62962988, 1, 9
62979628, 9, 0
62996268, 4, 225
63014980, 0, 196
63033704, 16, 81
63052416, 1, 49
63070092, 4, 0
63086736, 1, 169
63105468, 1, 64
63123136, 4, 169
63141852, 0, 36
63159548, 9, 1
63176188, 4, 196
63194900, 0, 144
63213620, 16, 49
63232348, 4, 0
63248988, 4, 1
63265612, 9, 196
63284348, 25, 144
63304100, 1, 1
63320728, 0, 121
63339452, 1, 100
63358188, 9, 49
63375868, 9, 36
63393532, 0, 169
63412264, 1, 25
63429944, 4, 25
63447616, 0, 25
63465300, 9, 64
63482976, 9, 225
63501700, 4, 0
63518340, 9, 0
63534980, 4, 256
63553704, 0, 225
63572416, 25, 49
63591148, 4, 16
63608808, 4, 0
63625456, 4, 144
63644184, 0, 49
63661856, 9, 144
63680592, 0, 36
63698276, 9, 1
63714912, 1, 225
63733612, 0, 144
63752336, 16, 64
63771052, 4, 1
63787712, 4, 1
63804328, 4, 196
63823056, 0, 144
63841776, 16, 81
63860500, 4, 25
63878184, 4, 0
63894832, 1, 196
63913544, 0, 100
63932252, 16, 49
63950984, 0, 9
63967628, 4, 9
63984248, 1, 196
64002972, 1, 121
64021708, 4, 49
64039384, 4, 1
64056028, 1, 9
64072660, 0, 64
64090344, 1, 400
64109068, 1, 36
64126736, 9, 9
64143380, 4, 196
64162108, 1, 196
64180816, 9, 49
64198500, 1, 25
64216196, 9, 4
64232824, 0, 169
64251536, 0, 256
64270248, 4, 25
64287956, 1, 25
64305624, 1, 16
64323292, 4, 81
64340968, 4, 225
64359708, 4, 0
64376356, 9, 1
64392988, 4, 289
64411708, 1, 196
64430424, 16, 64
64449148, 1, 25
64466816, 9, 0
64483460, 1, 144
64502184, 0, 36
64519856, 4, 169
64538576, 0, 36
64556276, 4, 0
64572904, 4, 225
64591616, 0, 144
64610340, 16, 36
64629064, 4, 1
64645704, 4, 1
64662332, 4, 196
64681064, 1, 144
64699784, 9, 100
64718500, 4, 25
64736172, 9, 0
64752832, 4, 196
64771544, 0, 81
64789224, 4, 169
64807924, 0, 49
64825620, 9, 1
64842268, 9, 196
64860976, 0, 100
64879704, 16, 64
64898432, 1, 4
64915068, 4, 0
64931716, 0, 256
64950420, 0, 196
64969132, 4, 64
64986824, 0, 25
65004500, 25, 4
65022188, 9, 100
65040900, 0, 25
65058572, 9, 196
65077308, 1, 36
65094988, 9, 0
65111632, 1, 225
65130336, 0, 144
65149060, 9, 36
65166756, 1, 1
65183388, 0, 1
65200020, 1, 81
65217696, 4, 324
65236416, 4, 25
65254108, 9, 4
65270740, 1, 225
65289472, 0, 225
65308184, 9, 49
65325860, 1, 36
65343544, 4, 9
65360176, 4, 144
65378896, 1, 225
65397612, 16, 25
65416348, 4, 16
65434040, 4, 1
65450676, 1, 225
65469364, 1, 169
65488100, 16, 49
65506816, 4, 4
65523464, 1, 0
65540104, 4, 196
65558828, 1, 169
65577532, 16, 81
65596260, 4, 25
65613952, 9, 0
65630596, 1, 196
65649304, 0, 81
65666976, 9, 169
65685708, 4, 49
65703380, 64, 1
65721048, 16, 64
65739760, 0, 0
65756424, 4, 169
65775148, 0, 16
65792824, 9, 0
65809476, 4, 225
65828180, 0, 196
65846896, 25, 81
65865628, 1, 25
65883304, 4, 0
65899940, 0, 196
65918656, 0, 64
65936328, 9, 196
65955068, 1, 36
65972740, 9, 1
65989384, 4, 196
66008100, 1, 144
66026820, 9, 49
66044500, 1, 1
66061140, 1, 9
66077780, 0, 49
66095456, 4, 324
66114180, 1, 25
66131860, 9, 4
66148512, 1, 225
66167220, 0, 169
66185936, 16, 81
66204652, 4, 36
66222344, 9, 1
66238980, 4, 144
66257700, 0, 64
66275384, 9, 144
66294108, 1, 25
66311784, 9, 0
66328424, 9, 225
66347140, 0, 196
66365860, 9, 49
66383544, 1, 9
66400172, 1, 16
66417856, 1, 36
66435536, 9, 289
66454260, 0, 9
66470896, 16, 1
66488596, 1, 144
66507308, 0, 49
66524980, 9, 169
66543708, 0, 36
66561384, 9, 1
66578008, 9, 169
66596736, 1, 100
66615464, 9, 64
66633152, 1, 1
66649780, 1, 4
66666416, 0, 81
66684104, 1, 400
66702824, 1, 36
66720496, 9, 4
66737132, 1, 225
66755856, 0, 169
66774568, 16, 81
66793308, 1, 25
66810988, 4, 0
66827628, 1, 225
66846344, 0, 100
66865052, 4, 49
66882740, 1, 9
66899384, 1, 1
66916004, 0, 100
66934728, 1, 225
66953468, 9, 4
66970100, 16, 1
66987788, 1, 121
67006516, 0, 9
67023140, 9, 196
67041868, 1, 25
67059536, 4, 4
67076176, 9, 169
67094908, 1, 169
67113620, 9, 49
67131300, 1, 36
67148992, 16, 4
67166672, 1, 144
67185372, 0, 121
67204088, 16, 25
67222820, 4, 9
67239472, 1, 1
67256092, 1, 169
67274824, 0, 100
67293544, 16, 100
67313308, 4, 9
67329936, 9, 0
67346588, 1, 169
67365304, 1, 49
67382980, 1, 196
67401684, 0, 49
67419388, 4, 0
67436008, 0, 225
67454740, 1, 100
67473464, 25, 64
67492192, 4, 1
67508828, 4, 0
67525468, 0, 225
67544180, 0, 196
67562900, 9, 49
67580576, 1, 1
67597216, 0, 4
67613860, 0, 36
67631536, 9, 256
67650260, 1, 16
67667940, 16, 9
67685632, 1, 81
67703296, 0, 64
67720980, 9, 121
67739708, 1, 36
67757384, 4, 9
67774012, 4, 144
67792732, 4, 256
67811468, 4, 9
67828108, 4, 9
67844752, 0, 225
67863456, 0, 121
67882176, 16, 49
67900900, 1, 0
67917544, 16, 0
67935200, 4, 64
67952900, 0, 16
67970596, 4, 144
67989300, 0, 36
68006988, 4, 9
68023632, 1, 196
68042344, 0, 225
68061052, 16, 36
68079784, 4, 16
68097460, 1, 1
68114100, 1, 169
68132812, 0, 100
68151544, 16, 81
68170276, 1, 4
68186900, 4, 0
68203556, 1, 225
68222264, 0, 169
68240972, 9, 81
68258668, 1, 25
68276344, 4, 4
68292988, 1, 169
68311700, 1, 225
68330416, 9, 49
68348108, 4, 36
68365788, 4, 9
68382424, 4, 196
68401124, 0, 324
68419864, 9, 4
68436508, 4, 16
68454168, 0, 81
68471856, 0, 0
68488504, 4, 196
68507220, 0, 16
68524900, 9, 16
68542592, 1, 49
68560260, 1, 289
68578980, 1, 4
68595612, 1, 0
68612260, 0, 225
68630980, 1, 196
68649700, 9, 49
68667372, 4, 25
68685076, 16, 4
68702756, 4, 144
68721452, 0, 121
68740180, 9, 49
68757868, 1, 1
68774508, 0, 1
68791140, 1, 81
68808820, 4, 324
68827548, 1, 25
68845228, 9, 4
68861864, 1, 196
68880588, 0, 169
68899296, 16, 64
68918024, 1, 9
68934648, 4, 0
68951300, 1, 169
68970020, 0, 169
68988736, 9, 49
69006428, 1, 16
69024108, 4, 9
69040748, 4, 144
69059452, 4, 289
69078188, 1, 9
69094828, 4, 4
69111448, 1, 196
69130172, 1, 100
69148908, 16, 64
69167624, 4, 1
69184264, 4, 0
69200904, 0, 196
69219628, 0, 169
69238336, 9, 81
69256012, 4, 36
69273704, 4, 4
69290340, 4, 169
69309060, 1, 225
69327776, 9, 36
69345456, 4, 25
69363140, 1, 9
69379788, 1, 144
69398484, 1, 324
69417224, 4, 4
69433860, 4, 9
69450500, 1, 196
69469224, 1, 100
69487936, 16, 81
69506660, 4, 9
69523300, 4, 1
69539944, 0, 196
69558664, 0, 196
69577384, 9, 81
69595052, 4, 36
69612740, 4, 9
69629380, 9, 144
69648096, 1, 225
69666804, 9, 25
69684508, 9, 25
69702188, 4, 9
69718828, 4, 144
69737540, 1, 324
69756268, 4, 1
69772900, 4, 4
69789540, 1, 169
69808264, 1, 121
69826976, 25, 64
69845696, 4, 16
69863384, 9, 1
69880036, 0, 144
69898744, 0, 49
69916424, 4, 225
69935144, 0, 64
69952828, 4, 0
69969448, 9, 196
69988176, 1, 81
70005864, 16, 100
70025628, 0, 25
70043304, 9, 0
70059936, 0, 121
70078672, 0, 16
70096340, 1, 144
70115048, 0, 4
70131696, 1, 0
70148348, 1, 144
70167064, 0, 121
70185780, 16, 64
70204508, 4, 25
70222188, 9, 0
70238828, 4, 225
70257532, 0, 144
70276260, 9, 36
70293936, 1, 4
70310584, 0, 0
70327200, 0, 81
70344908, 4, 289
70363620, 4, 16
70381308, 9, 4
70397940, 0, 225
70416660, 0, 169
70435376, 9, 64
70453056, 4, 9
70469700, 0, 16
70487380, 1, 36
70505060, 4, 289
70523780, 1, 36
70541468, 9, 1
70558116, 1, 196
70576816, 0, 64
70594496, 4, 169
70613228, 0, 36
70630900, 4, 1
70647540, 1, 169
70666264, 0, 100
70684984, 9, 49
70702660, 1, 0
70719300, 0, 1
70735952, 1, 64
70753624, 4, 289
70772344, 1, 25
70790020, 1, 25
70807696, 4, 64
70825384, 64, 25
70844092, 441, 256
70864892, 25, 196
70884660, 64, 9
70902348, 1, 49
70920020, 1, 4
70936676, 4, 225
70955380, 121, 361
70976172, 289, 49
70995928, 36, 121
71015700, 49, 0
71033376, 81, 361
71053136, 529, 324
71073952, 16, 16
71092664, 4, 25
71110332, 729, 4
71129048, 1156, 49
71149860, 196, 64
71169616, 0, 9
71186256, 36, 49
71204980, 144, 49
71224736, 225, 4
71243440, 16, 64
71262164, 2916, 36
71282984, 1024, 81
71303772, 36, 2304
71324564, 5184, 1089
71347464, 13456, 324
71370324, 1444, 256
71392152, 3844, 289
71414020, 3025, 576
71435860, 324, 225
71456660, 4, 16
71474340, 169, 4
71493052, 1521, 1
71512808, 289, 81
71532572, 196, 0
71551304, 16, 64
71570012, 1764, 81
71590816, 1521, 64
71611612, 2116, 25
71632404, 12321, 676
71655292, 17424, 1600
71679228, 2304, 100
71701044, 3844, 196
71722884, 14884, 625
71745772, 2704, 841
71767600, 289, 4
71786344, 1849, 4
71806092, 11449, 324
71828968, 12544, 784
71851856, 1089, 256
71873700, 1296, 9
71893452, 1936, 36
71914260, 1296, 121
71936100, 1369, 0
71955864, 841, 1
71974572, 64, 49
71993284, 1024, 49
72014100, 676, 81
72033852, 9, 25
72051528, 49, 49
72070256, 225, 4
72088980, 2601, 121
72110812, 4, 100
72129524, 2704, 49
72150340, 49, 169
72170092, 1296, 25
72190896, 16, 1
72208572, 1936, 169
72230420, 2025, 49
72251204, 0, 0
72267856, 144, 64
72287616, 1369, 25
72308412, 4356, 169
72330252, 6400, 529
72352088, 3844, 676
72373928, 361, 256
72394728, 1936, 64
72415540, 1764, 64
72436332, 4356, 81
72457124, 1156, 289
72478980, 16, 4
72496660, 1936, 16
72517456, 3136, 529
72539296, 484, 64
72559064, 169, 49
72578808, 2601, 9
72598584, 3364, 144
72620428, 1681, 441
72642260, 529, 16
72662012, 49, 49
72680748, 36, 0
72698408, 256, 25
72718164, 0, 9
72734824, 1600, 9
72754580, 361, 64
72774328, 2116, 4
72794092, 1936, 169
72815948, 121, 36
72835692, 289, 1
72854404, 10816, 324
72877300, 11236, 529
72900180, 2401, 225
72922008, 64, 361
72941776, 100, 225
72962572, 784, 100
72983364, 625, 4
73002096, 14884, 784
73024968, 21316, 2500
73048896, 6084, 1156
73071784, 529, 36
73091528, 100, 16
73111296, 2304, 4
73131068, 484, 81
73150832, 1, 0
73167456, 121, 225
73188252, 361, 1
73206972, 2601, 36
73227768, 625, 36
73247528, 3364, 4
73267300, 5329, 324
73289128, 0, 0
73305764, 3136, 484
73327604, 324, 144
73348424, 1, 64
73366092, 1521, 1
73385844, 5329, 196
73407700, 6400, 289
73429544, 1225, 49
73450336, 1, 0
73466968, 144, 4
73485704, 256, 49
73505452, 2025, 256
73527288, 729, 196
73548100, 169, 9
73566824, 1, 1
73583452, 441, 0
73602176, 361, 81
73621936, 289, 0
73640664, 100, 0
73659372, 361, 4
73678088, 4225, 225
73699928, 9025, 625
73721764, 1521, 625
73743624, 324, 1
73762344, 441, 16
73782104, 361, 0
73800824, 169, 289
73821612, 400, 144
73842424, 529, 4
73861128, 2809, 100
73882976, 6724, 225
73904820, 400, 100
73925604, 16, 9
73943296, 1089, 144
73965132, 36, 144
73984888, 3025, 81
74005704, 5041, 196
74027556, 484, 0
74046256, 1, 1
74062904, 256, 25
74082664, 256, 4
74101376, 784, 36
74121128, 2209, 256
74142976, 2025, 100
74164816, 64, 25
74183552, 144, 1
74202248, 1681, 1
74222008, 2916, 100
74243852, 25, 36
74262584, 16, 9
74280264, 81, 0
74297944, 121, 100
74318732, 225, 196
74339540, 100, 49
74359292, 256, 1
74378020, 81, 16
74396728, 361, 0
74415456, 1444, 121
74437304, 9, 225
74456016, 529, 4
74474736, 0, 121
74493456, 324, 4
74512180, 36, 36
74530896, 361, 25
74550656, 64, 0
74568340, 225, 36
74588100, 729, 4
74606824, 729, 0
74625532, 1156, 16
74646332, 1089, 81
74667140, 121, 9
74685868, 961, 121
74706660, 9, 16
74724312, 169, 49
74744104, 1089, 64
74764892, 900, 289
74785696, 121, 1
74804424, 2401, 9
74824172, 4624, 81
74844980, 625, 36
74864736, 49, 1
74882416, 25, 16
74901132, 49, 9
74918808, 1444, 16
74939620, 324, 64
74959392, 196, 0
74978096, 81, 4
74995780, 4, 81
75013460, 529, 81
75033216, 576, 25
75052976, 64, 9
75070664, 25, 0
75088340, 81, 9
75106020, 1, 16
75123684, 256, 196
75144504, 0, 9
75161140, 1, 0
75177780, 324, 4
75196500, 1089, 64
75217292, 1089, 169
75239144, 0, 4
75255760, 169, 100
75276580, 1369, 9
75296352, 0, 4
75312988, 676, 25
75332744, 4, 25
75350424, 1, 16
75368092, 625, 81
75387852, 100, 64
75407632, 81, 1
75425316, 100, 400
75446096, 841, 441
75466884, 5776, 49
75487684, 5041, 676
75509524, 4900, 625
75531380, 2809, 225
75553220, 196, 16
75572968, 256, 144
75593788, 1849, 1
75613540, 3844, 256
75635364, 1521, 324
75657220, 841, 36
75676976, 9, 36
75694644, 1764, 49
75715456, 121, 0
75734176, 576, 225
75754972, 256, 169
75775764, 81, 256
75795548, 324, 81
75815308, 169, 0
75834016, 49, 169
75853772, 81, 36
75872500, 0, 25
75890168, 225, 36
75909936, 1024, 1
75929696, 2025, 100
75951528, 0, 0
75968188, 2601, 324
75990012, 441, 144
76010828, 1849, 64
76031620, 1444, 25
76052412, 9, 0
76069048, 3136, 324
76090884, 5329, 1024
76113768, 484, 36
76133528, 3721, 289
76155380, 3969, 1
76175124, 5929, 100
76196992, 1024, 225
76218800, 1156, 81
76239620, 100, 9
76258344, 576, 0
76277044, 13456, 36
76298892, 6400, 784
76320736, 400, 1
76339444, 1600, 529
76361288, 9025, 529
76383128, 484, 1156
76404988, 7921, 49
76425780, 3969, 900
76447612, 1024, 1
76467376, 1849, 81
76488164, 4, 256
76506896, 625, 49
76526664, 64, 25
76545384, 361, 196
76566176, 25, 25
76584884, 256, 4
76603612, 36, 4
76621300, 36, 0
76638964, 3844, 25
76659772, 7396, 324
76681608, 4356, 361
76703452, 3249, 841
76725304, 289, 196
76746088, 400, 225
76766896, 2304, 4
76786628, 6400, 484
76808484, 4356, 225
76830324, 1024, 169
76852164, 2209, 676
76874028, 529, 81
76893768, 961, 49
76913516, 8281, 196
76935368, 8464, 841
76957216, 841, 81
76976960, 64, 0
76994644, 6241, 441
77016492, 11025, 1369
77040408, 9, 81
77058100, 3969, 324
77079944, 1156, 196
77101756, 1369, 144
77123612, 2401, 144
77145448, 6400, 441
77167276, 32400, 529
77190172, 15625, 841
77213044, 2809, 169
77234892, 2809, 576
77256740, 100, 9
77275464, 9, 16
77293120, 2500, 256
77314976, 9604, 81
77335792, 1849, 289
77357604, 4096, 9
77377380, 289, 324
77398172, 6724, 9
77417928, 0, 256
77436656, 3364, 36
77457456, 2601, 25
77478256, 3249, 49
77499040, 900, 441
77519836, 13689, 400
77542732, 22801, 2025
77566648, 1089, 1225
77589540, 4, 9
77606176, 729, 361
77626968, 81, 361
77646744, 0, 4
77663388, 4, 0
77680024, 2601, 16
77700812, 7056, 64
77721616, 196, 144
77742420, 729, 81
77762176, 1, 1
77778824, 9, 289
77797552, 400, 16
77817304, 289, 81
77837052, 64, 256
77856816, 484, 4
77875540, 225, 121
77896340, 1296, 529
77918172, 1849, 121
77940024, 400, 9
77958736, 841, 16
77978492, 2809, 36
77999288, 1225, 81
78020092, 400, 1
78038816, 484, 100
78059636, 9, 81
78077308, 1, 144
78096008, 81, 144
78115768, 81, 0
78133464, 961, 1
78152180, 841, 9
78170884, 961, 0
78189604, 1849, 36
78210416, 841, 64
78230172, 900, 169
78250968, 16, 1
78268656, 81, 16
78287384, 225, 36
78307136, 2916, 16
78327948, 1225, 225
78349788, 256, 0
78368504, 361, 36
78388272, 729, 1
78406980, 64, 9
78424648, 1600, 144
78446488, 256, 324
78467304, 25, 121
78487068, 36, 1
78504728, 225, 0
78523460, 1764, 144
78545304, 1681, 484
78567136, 1156, 256
78588992, 1089, 1
78608740, 1849, 25
78629528, 1296, 64
78650320, 289, 4
78669064, 1089, 16
78689860, 81, 4
78707536, 36, 100
78727304, 1, 9
78743948, 16, 4
78761612, 16, 25
78780336, 576, 1
78799060, 81, 16
78817772, 1936, 81
78838572, 256, 324
78859380, 529, 4
78878084, 361, 49
78897852, 225, 16
78917608, 484, 25
78937376, 169, 1
78956080, 1156, 64
78976892, 2209, 576
78998744, 144, 81
79018500, 49, 36
79037220, 121, 25
79056980, 225, 4
79075708, 196, 16
79095456, 324, 121
79116256, 49, 36
79134988, 64, 4
79152656, 361, 9
79171372, 196, 1
79190104, 1, 0
79206740, 64, 0
79224416, 4, 16
79242088, 576, 361
79262900, 81, 289
79282664, 121, 16
79302424, 121, 25
79322184, 64, 1
79339860, 1369, 36
79360648, 4761, 256
79382488, 1764, 49
79403308, 49, 4
79420992, 289, 196
79441772, 49, 121
79461544, 2601, 25
79482336, 784, 1
79501060, 25, 196
79520832, 9, 1
79537468, 1, 25
79555144, 36, 36
79573856, 121, 16
79593632, 49, 0
79611308, 4, 25
79628984, 4, 16
79646652, 25, 0
79664336, 0, 81
79682016, 361, 100
79702808, 784, 81
79722584, 121, 16
79742340, 9, 9
79758976, 25, 81
79777692, 36, 0
79795384, 25, 16
79814104, 729, 9
79832816, 121, 0
79851540, 196, 16
79871304, 729, 9
79890016, 169, 0
79908736, 289, 4
79927460, 169, 49
79947208, 1, 25
79964896, 576, 25
79984660, 324, 169
80005468, 441, 9
80024172, 576, 361
80044964, 0, 64
80062656, 169, 36
80082416, 64, 81
80101140, 36, 9
80118816, 81, 49
80137544, 4, 81
80155224, 36, 36
80173940, 121, 4
80192672, 49, 4
80210348, 121, 9
80229056, 1, 100
80247772, 361, 25
80267544, 625, 1
80286264, 169, 36
80306020, 100, 36
80325788, 400, 16
80345532, 1764, 36
80366336, 2304, 49
80387144, 729, 25
80406904, 81, 16
80425628, 1, 16
80443296, 289, 36
80463064, 576, 49
80482820, 36, 9
80500496, 1444, 169
80522336, 1444, 576
80544184, 9, 0
80560816, 576, 484
80581612, 289, 225
80602424, 441, 9
80621136, 3136, 400
80642972, 1681, 784
80664820, 676, 36
80684596, 1225, 1
80704336, 900, 100
80725136, 121, 1
80743856, 324, 0
80762576, 49, 36
80781292, 81, 1
80798988, 361, 0
80817704, 256, 225
80838496, 49, 49
80857228, 121, 16
80876976, 49, 16
80895700, 25, 4
80913364, 0, 0
80930024, 4, 196
80948728, 49, 169
80968496, 49, 0
80986180, 1369, 1
81005944, 1156, 9
81025688, 64, 0
81043372, 1444, 81
81064188, 1225, 16
81084976, 576, 36
81104744, 9, 49
81122420, 441, 9
81141148, 441, 1
81159860, 576, 16
81179612, 1600, 196
81201456, 729, 9
81220168, 144, 100
81240976, 1296, 49
81261792, 529, 169
81282600, 289, 36
81302348, 196, 4
81321052, 529, 64
81340816, 961, 25
81360580, 484, 81
81380332, 169, 9
81399064, 361, 1
81417772, 1089, 4
81437544, 324, 25
81457312, 4, 4
81473948, 64, 36
81492668, 4, 9
81509300, 81, 64
81528024, 169, 121
81548824, 16, 4
81566496, 0, 4
81583152, 9, 4
81599780, 49, 100
81619540, 0, 9
81636188, 1, 49
81653864, 1, 36
81671556, 0, 1
81688184, 16, 16
81706900, 0, 225
81725632, 4, 4
81742252, 0, 0
81758892, 36, 81
81777608, 4, 4
81794272, 49, 289
81814016, 36, 36
81832744, 9, 25
81850424, 0, 0
81867072, 4, 64
81884736, 9, 324
81903456, 9, 9
81920108, 81, 36
81938816, 16, 64
81957544, 16, 25
81976256, 4, 4
81992908, 324, 100
82013696, 289, 0
82032416, 1, 25
82050108, 100, 9
82068824, 169, 9
82087548, 169, 1
82106252, 100, 4
82124980, 81, 100
82144724, 121, 36
82164484, 36, 25
82183224, 625, 4
82201948, 324, 25
82221704, 121, 36
82241452, 121, 0
82260184, 196, 81
82279940, 100, 36
82299692, 256, 1
82318420, 324, 9
82337152, 4, 4
82353772, 196, 36
82373532, 81, 9
82391232, 25, 9
82408912, 729, 0
82427604, 256, 169
82448416, 169, 256
82469220, 144, 16
82488972, 784, 9
82507696, 1681, 4
82527460, 64, 9
82545140, 256, 100
82565932, 441, 144
82586744, 400, 0
82605460, 169, 0
82624172, 100, 9
82642892, 484, 36
82662664, 441, 144
82683472, 225, 1
82702172, 576, 36
82721948, 121, 1
82740672, 1, 4
82757304, 16, 36
82776028, 144, 9
82794744, 676, 36
82814508, 169, 9
82833220, 16, 1
82850912, 169, 49
82870676, 841, 64
82890424, 289, 1
82909124, 196, 0
82927860, 484, 0
82946580, 225, 16
82966332, 289, 25
82986100, 64, 64
83004828, 225, 1
83023532, 576, 4
83042244, 64, 256
83062028, 9, 25
83079700, 25, 36
83098416, 324, 1
83117140, 16, 16
83135860, 1444, 121
83157688, 625, 529
83178488, 49, 49
83197220, 784, 0
83215936, 225, 16
83235696, 81, 9
83253364, 441, 144
83274176, 225, 121
83294968, 81, 36
83313704, 1, 81
83331384, 64, 64
83350092, 441, 0
83368816, 1444, 100
83390676, 0, 81
83408340, 196, 9
83427068, 144, 0
83445780, 625, 25
83465544, 676, 0
83484264, 225, 36
83504016, 1, 0
83520660, 196, 81
83540408, 784, 4
83559140, 196, 36
83578900, 529, 1
83597632, 729, 16
83617380, 121, 4
83636100, 361, 9
83654828, 324, 0
83673540, 1, 1
83690176, 36, 64
83708892, 49, 16
83727632, 169, 4
83746336, 324, 100
83767136, 16, 144
83786908, 9, 4
83803552, 36, 121
83823292, 81, 100
83843052, 676, 16
83862812, 361, 25
83882576, 64, 1
83900252, 0, 16
83917940, 0, 4
83934584, 0, 9
83951224, 4, 81
83968904, 900, 441
83989704, 961, 361
84010488, 121, 64
84030256, 144, 0
84048992, 225, 144
84069792, 169, 169
84090584, 4, 0
84107208, 9, 36
84124912, 169, 0
84143620, 256, 1
84162344, 196, 9
84181060, 81, 64
84199784, 121, 9
84218492, 625, 4
84237216, 361, 64
84256984, 49, 9
84274664, 400, 1
84293380, 576, 1
84312100, 144, 25
84331860, 25, 9
84349528, 64, 0
84367220, 121, 16
84386980, 361, 1
84405696, 484, 36
84425464, 4, 36
84443132, 49, 9
84460840, 49, 81
84479528, 81, 64
84498260, 64, 36
84516988, 529, 1
84535700, 324, 49
84555460, 16, 36
84574168, 16, 49
84592904, 100, 25
84612664, 0, 1
84629304, 196, 16
84649072, 324, 4
84667784, 36, 81
84686500, 16, 25
84705216, 16, 0
84722896, 9, 0
84739540, 16, 36
84758256, 36, 144
84778012, 484, 49
84797780, 400, 81
84817552, 1, 1
84834168, 484, 25
84853940, 256, 36
84873704, 1, 9
84890340, 64, 9
84908012, 36, 4
84925708, 4, 49
84943388, 4, 16
84961064, 49, 1
84978740, 16, 16
84997468, 4, 4
85014092, 16, 169
85033852, 121, 36
85053616, 121, 4
85072340, 9, 1
85088984, 9, 121
85107696, 256, 36
85127460, 289, 9
85146184, 81, 49
85164888, 400, 64
85184664, 9, 9
85201308, 0, 0
85217932, 36, 36
85236652, 256, 121
85257464, 64, 64
85276196, 9, 64
85293856, 25, 1
85311544, 49, 4
85329220, 4, 100
85347940, 16, 16
85366660, 100, 36
85386420, 100, 16
85406180, 64, 49
85424896, 576, 16
85444648, 2500, 49
85465456, 144, 25
85485200, 64, 25
85503932, 576, 9
85522664, 1, 64
85540324, 1521, 9
85560080, 5929, 144
85581932, 3600, 36
85602728, 4900, 1
85622492, 2209, 289
85644332, 36, 81
85663060, 576, 4
85681772, 0, 36
85699456, 900, 0
85718180, 36, 289
85737932, 900, 64
85757704, 121, 4
85776420, 25, 121
85796176, 81, 16
85814892, 1521, 9
85834652, 1444, 49
85855448, 784, 169
85876260, 900, 144
85897060, 169, 49
85916824, 36, 9
85934508, 576, 49
85954244, 1849, 0
85974004, 1089, 4
85993784, 81, 1
86011460, 9, 49
86029140, 4, 0
86045788, 9, 81
86063456, 36, 64
86082168, 225, 64
86101936, 100, 36
86121708, 81, 4
86139380, 25, 0
86157056, 0, 0
86173692, 1, 81
86191376, 256, 81
86211144, 400, 49
86230904, 100, 25
86250664, 676, 16
86270420, 841, 9
86289140, 64, 4
86306812, 169, 81
86326580, 1369, 81
86347372, 1156, 36
86368168, 144, 25
86387936, 64, 9
86405624, 0, 1
86422260, 1, 36
86439928, 121, 36
86459708, 121, 4
86478424, 225, 4
86497140, 144, 64
86516900, 529, 25
86536656, 225, 1
86555372, 289, 1
86574104, 289, 16
86593880, 16, 16
86612576, 9, 64
86630252, 196, 81
86650020, 361, 49
86669776, 0, 36
86687460, 4, 1
86704088, 81, 9
86721784, 64, 144
86741540, 144, 36
86761300, 196, 4
86780020, 16, 4
86797716, 4, 25
86815376, 289, 64
86835124, 361, 169
86855944, 0, 1
86872572, 196, 100
86893380, 0, 1
86910024, 441, 196
86930816, 64, 64
86949540, 64, 16
86968256, 36, 1
86985940, 0, 25
87003620, 1, 49
87021296, 484, 225
87042100, 100, 324
87062904, 1369, 49
87083692, 529, 81
87103440, 169, 9
87122180, 289, 4
87140908, 169, 1
87159612, 1, 25
87177300, 361, 9
87196028, 1296, 25
87216828, 4, 0
87233452, 256, 289
87254256, 625, 100
87275052, 2025, 64
87295844, 1296, 25
87316656, 484, 25
87336412, 169, 36
87356180, 196, 1
87374892, 64, 64
87393616, 2209, 16
87414416, 1521, 225
87436248, 100, 4
87454980, 4, 81
87472672, 1, 9
87489296, 225, 100
87510100, 121, 36
87529868, 0, 0
87546504, 64, 1
87564168, 676, 100
87584984, 625, 196
87605784, 4, 9
87622420, 196, 196
87643212, 169, 225
87664032, 169, 0
87682728, 361, 121
87703524, 324, 169
87724336, 1156, 25
87745136, 529, 36
87764904, 324, 4
87783620, 256, 25
87803376, 529, 4
87822088, 1936, 64
87842900, 576, 256
87863704, 25, 1
87881380, 676, 100
87902172, 484, 144
87922976, 4, 49
87940648, 400, 36
87960416, 289, 49
87980184, 64, 36
87998900, 441, 4
88017624, 0, 25
88035292, 1, 0
88051944, 196, 225
88072748, 225, 256
88093536, 25, 1
88111224, 625, 144
88132012, 441, 100
88152820, 100, 0
88171540, 484, 144
88192332, 4, 169
88211060, 25, 100
88230808, 25, 25
88249540, 64, 16
88268260, 25, 9
88285936, 169, 4
88304652, 729, 100
88325460, 400, 36
88345212, 0, 0
88361868, 16, 0
88379540, 49, 49
88398260, 1, 49
88415928, 100, 0
88434652, 49, 0
88452344, 64, 0
88470016, 36, 36
88488732, 64, 36
88507464, 400, 1
88526184, 169, 1
88544896, 784, 16
88564640, 1089, 49
88585452, 400, 25
88605228, 64, 0
88622904, 16, 9
88640580, 81, 49
88659296, 9, 0
88675940, 16, 121
88695688, 484, 36
88715456, 784, 36
88735212, 169, 1
88753936, 1521, 169
88775784, 100, 64
88795548, 196, 16
88815288, 289, 0
88834016, 196, 0
88852752, 1, 9
88869388, 0, 25
88887048, 25, 25
88905792, 441, 4
88924504, 196, 49
88944256, 16, 9
88961948, 0, 9
88978572, 289, 64
88998332, 81, 144
89018100, 1, 4
89034728, 9, 1
89051384, 256, 4
89070108, 1764, 4
89089860, 961, 9
89108576, 144, 144
89129380, 961, 400
89150172, 49, 0
89167844, 100, 169
89188668, 49, 36
89207388, 4, 4
89224012, 16, 64
89242740, 16, 0
89260428, 256, 1
89279128, 1089, 64
89299936, 784, 441
89320740, 169, 64
89340500, 2116, 81
89361296, 0, 36
89378992, 676, 0
89397700, 81, 0
89415380, 16, 25
89434088, 121, 36
89453860, 16, 1
89471536, 1156, 0
89491296, 169, 49
89511068, 36, 16
89529784, 0, 49
89547452, 196, 25
89567204, 625, 49
89586980, 4, 25
89604652, 361, 144
89625456, 1521, 484
89647300, 9, 225
89666016, 1156, 16
89686820, 144, 100
89707628, 16, 9
89725300, 4, 36
89742980, 4, 121
89761688, 169, 16
89781464, 900, 0
89800180, 729, 9
89818888, 36, 9
89836580, 961, 4
89855296, 256, 9
89874012, 1, 81
89891704, 361, 9
89910420, 4, 16
89928100, 576, 9
89946816, 36, 16
89965528, 484, 1
89984272, 676, 25
90004020, 49, 9
90021692, 900, 9
90040416, 3025, 289
90062256, 1849, 256
90084108, 36, 1
90101792, 144, 16
90121544, 1, 16
90139208, 121, 0
90157944, 324, 0
90176668, 841, 0
90195388, 1225, 64
90216176, 625, 64
90235936, 16, 0
90253620, 841, 64
90273376, 2809, 49
90294168, 441, 9
90312908, 9, 4
90329528, 25, 36
90348260, 100, 16
90368020, 289, 0
90386748, 225, 1
90405456, 121, 16
90425212, 0, 100
90443944, 361, 0
90462652, 144, 9
90481376, 121, 0
90500088, 324, 4
90518828, 4, 1
90535468, 100, 0
90554180, 256, 36
90573936, 841, 9
90592676, 289, 9
90611380, 16, 9
90629064, 1, 1
90645700, 81, 16
90664416, 49, 16
90683128, 100, 144
90703948, 256, 1
90722660, 9, 1
90739292, 576, 16
90759060, 361, 49
90778816, 900, 16
90798564, 4489, 144
90820416, 3249, 361
90842272, 361, 4
90860972, 484, 1
90879688, 1296, 81
90900496, 64, 1
90918172, 1849, 324
90940024, 1849, 169
90961848, 676, 49
90981620, 961, 121
91002420, 361, 196
91023224, 225, 4
91041952, 225, 1
91060644, 121, 144
91081448, 81, 64
91100184, 169, 64
91119944, 441, 16
91139692, 25, 25
91158416, 16, 0
91176096, 289, 9
91194804, 441, 36
91214572, 196, 64
91234352, 25, 0
91252032, 9, 25
91269700, 1, 121
91288420, 64, 36
91307152, 49, 0
91324828, 36, 1
91342496, 225, 16
91362256, 196, 64
91382024, 4, 4
91398664, 9, 9
91415292, 0, 9
91431924, 4, 64
91449624, 0, 100
91468328, 64, 16
91487052, 64, 0
91504736, 4, 0
91521376, 9, 25
91539048, 16, 81
91557780, 16, 25
91576508, 9, 0
91593144, 1, 9
91609780, 25, 0
91627448, 49, 1
91645152, 64, 1
91662828, 1, 49
91680500, 4, 4
91697136, 1, 36
91714820, 9, 16
91732512, 1, 16
91750180, 144, 0
91768900, 81, 100
91788664, 16, 25
91807380, 144, 0
91826084, 49, 0
91843788, 1, 0
91860412, 256, 64
91880180, 1089, 121
91902020, 324, 49
91921784, 0, 0
91938420, 9, 25
91956100, 9, 4
91972736, 1, 9
91989376, 81, 0
92007060, 169, 25
92026812, 25, 0
92044496, 0, 4
92061136, 1, 64
92078824, 1, 36
92096492, 0, 0
92113136, 64, 0
92130808, 49, 25
92149544, 0, 4
92166196, 1, 36
92183868, 1, 25
92201544, 9, 64
92219216, 16, 1
92236904, 169, 81
92256664, 121, 36
92276424, 25, 9
92294092, 1, 9
92310736, 1, 36
92328408, 9, 16
92346100, 1, 16
92363764, 49, 25
92382508, 0, 9
92399148, 36, 49
92417864, 0, 81
92435552, 36, 4
92453212, 25, 9
92470892, 0, 9
92487536, 4, 9
92504188, 81, 1
92521868, 4, 0
92538508, 16, 36
92557212, 4, 64
92574900, 64, 1
92592576, 16, 0
92610244, 9, 25
92627932, 1, 4
92644588, 9, 25
92662256, 1, 9
92678900, 0, 64
92696584, 1, 100
92715300, 16, 9
92732976, 49, 1
92750652, 16, 36
92769384, 4, 0
92786020, 4, 36
92803704, 0, 25
92821380, 121, 0
92840104, 289, 36
92859860, 441, 25
92879616, 144, 16
92899392, 0, 1
92916020, 25, 36
92934728, 4, 16
92952424, 49, 1
92970100, 4, 25
92987776, 9, 0
93004416, 9, 49
93022104, 25, 1
93039788, 36, 4
93057456, 81, 16
93076180, 81, 81
93094896, 9, 0
93111536, 49, 25
93130272, 144, 16
93150020, 100, 4
93168740, 16, 1
93186420, 169, 4
93205140, 49, 64
93223852, 1, 9
93240512, 16, 1
93258176, 9, 81
93275856, 4, 49
93293536, 1, 9
93310180, 9, 1
93326812, 16, 49
93345536, 25, 81
93364264, 9, 1
93380908, 4, 16
93398572, 49, 49
93417288, 225, 0
93436024, 576, 25
93455788, 121, 4
93474508, 25, 16
93493216, 49, 0
93510904, 0, 1
93527540, 1, 25
93545216, 16, 36
93563936, 36, 1
93581624, 169, 4
93600340, 256, 16
93620100, 81, 16
93638832, 9, 1
93655472, 9, 9
93672104, 36, 49
93690824, 9, 1
93707468, 1, 25
93725128, 49, 9
93742820, 16, 25
93761532, 1, 9
93778184, 4, 9
93794812, 81, 0
93812492, 16, 25
93831224, 4, 9
93847860, 169, 4
93866568, 676, 64
93886336, 100, 64
93906104, 4, 0
93922740, 25, 36
93941456, 0, 25
93959120, 0, 4
93975784, 9, 64
93993456, 0, 100
94012180, 100, 4
94030904, 64, 9
94048580, 4, 1
94065212, 9, 49
94082900, 25, 100
94102660, 49, 4
94120344, 49, 4
94138012, 16, 4
94155688, 4, 25
94173388, 25, 81
94192092, 1, 1
94208732, 9, 4
94225372, 4, 64
94243064, 4, 100
94261784, 36, 4
94279460, 121, 4
94298180, 144, 9
94316896, 144, 0
94335612, 36, 9
94353308, 0, 16
94370984, 1, 4
94387624, 0, 9
94404252, 9, 64
94421932, 49, 144
94441708, 36, 36
94460416, 1, 4
94477056, 25, 0
94494740, 49, 9
94512428, 16, 64
94531136, 25, 0
94548820, 9, 16
94566508, 36, 4
94584180, 36, 36
94602900, 9, 25
94620568, 49, 1
94638260, 121, 1
94656980, 25, 0
94674656, 9, 16
94692336, 4, 49
94710028, 0, 4
94726668, 16, 25
94745376, 25, 9
94763072, 4, 1
94779720, 1, 9
94796344, 25, 1
94814020, 196, 36
94833788, 100, 4
94852508, 16, 4
94870184, 1, 9
94886820, 1, 9
94903464, 0, 64
94921140, 49, 100
94940896, 121, 0
94959612, 4, 4
94976260, 1, 4
94992900, 9, 49
95010576, 4, 81
95028268, 0, 36
95045948, 1, 1
95062576, 0, 64
95080256, 0, 100
95098980, 36, 9
95116668, 49, 0
95134328, 0, 25
95152020, 9, 1
95168668, 36, 49
95187380, 64, 36
95206108, 16, 4
95223772, 0, 9
95240428, 25, 36
95259140, 81, 0
95276812, 25, 9
95294496, 1, 16
95312176, 4, 4
95328812, 4, 81
95346500, 49, 16
95365224, 81, 1
95382900, 100, 64
95402656, 4, 36
95420328, 121, 25
95440104, 4, 9
95456732, 484, 16
95476496, 64, 25
95495224, 16, 0
95512912, 0, 36
95530572, 4, 49
95548256, 0, 36
95565944, 9, 36
95583632, 4, 9
95600268, 16, 1
95617940, 144, 9
95636668, 36, 0
95654344, 25, 4
95672020, 4, 81
95689684, 1, 121
95708428, 4, 1
95725056, 9, 0
95741696, 4, 64
95759384, 0, 100
95778100, 16, 1
95795780, 16, 4
95813460, 9, 16
95831148, 144, 4
95849864, 289, 9
95868572, 100, 25
95888324, 49, 9
95906024, 25, 1
95923696, 1, 0
95940328, 9, 16
95958012, 25, 100
95977776, 25, 16
95996504, 64, 1
96014184, 49, 4
96031868, 9, 36
96049556, 4, 4
96066176, 0, 49
96083860, 1, 16
96101540, 4, 49
96119220, 0, 25
96136912, 4, 25
96154572, 1, 16
96172272, 4, 9
96188908, 9, 0
96205548, 1, 4
96222168, 1, 1
96238816, 1, 0
96255452, 9, 16
96273128, 64, 9
96290808, 144, 121
96311620, 196, 100
96332408, 25, 1
96350092, 49, 49
96368820, 36, 81
96387532, 49, 4
96405228, 81, 9
96422892, 36, 4
96440580, 0, 64
96458272, 25, 9
96475948, 4, 36
96493628, 9, 9
96510260, 144, 49
96530016, 196, 16
96549780, 144, 9
96568500, 64, 0
96586180, 49, 25
96604892, 25, 9
96622568, 0, 1
96639224, 25, 49
96657948, 49, 36
96676656, 1, 9
96693300, 36, 25
96712028, 289, 0
96730740, 100, 49
96750492, 0, 9
96767140, 25, 0
96784816, 81, 4
96802504, 49, 1
96820160, 81, 16
96838900, 16, 0
96856580, 4, 36
96874260, 16, 4
96891948, 1, 1
96908584, 16, 49
96927308, 4, 25
96944988, 9, 4
96961624, 1, 1
96978260, 9, 64
96995940, 25, 64
97014664, 36, 0
97032340, 0, 4
97048976, 49, 49
97067696, 16, 49
97086416, 25, 0
97104104, 81, 0
97121780, 36, 0
97139468, 9, 9
97156100, 64, 4
97173788, 49, 9
97191472, 1, 1
97208104, 81, 25
97226828, 0, 16
97244504, 36, 1
97262176, 0, 4
97278820, 0, 25
97296496, 4, 0
97313144, 9, 36
97330816, 9, 9
97347452, 16, 81
97366180, 64, 100
97385940, 9, 0
97402572, 9, 1
97419204, 1, 0
97435860, 36, 1
97453540, 9, 25
97471224, 0, 1
97487860, 25, 64
97506588, 81, 49
97525304, 9, 4
97541944, 36, 4
97559628, 64, 1
97577300, 169, 49
97597048, 16, 36
97615776, 9, 1
97632436, 9, 9
97649072, 169, 1
97667776, 121, 9
97686496, 225, 25
97706268, 100, 4
97724988, 1, 25
97742660, 16, 1
97760340, 64, 4
97778024, 1, 25
97795700, 1, 9
97812336, 0, 36
97830020, 4, 9
97846672, 49, 9
97864340, 16, 16
97883052, 9, 1
97899708, 1, 1
97916336, 196, 16
97936096, 169, 0
97954824, 9, 4
97971464, 1, 16
97989152, 1, 4
98005780, 36, 9
98023460, 9, 64
98041152, 4, 16
98058828, 1, 1
98075452, 64, 25
98094180, 4, 36
98111864, 289, 1
98130580, 121, 16
98150344, 36, 4
98168020, 169, 9
98186736, 121, 49
98206496, 81, 16
98225216, 16, 4
98242904, 9, 36
98260572, 36, 4
98278252, 49, 1
98295936, 49, 9
98313624, 49, 36
98332348, 16, 1
98350008, 25, 9
98367696, 4, 1
98384336, 81, 36
98403056, 289, 49
98422824, 361, 16
98442580, 121, 25
98462340, 9, 1
98478980, 1, 9
98495616, 0, 16
98513316, 49, 0
98530976, 121, 36
98550740, 4, 9
98567384, 36, 9
98585060, 0, 49
98602740, 4, 16
98620420, 1, 0
98637064, 4, 1
98653700, 49, 16
98672416, 256, 16
98692180, 81, 9
98709860, 0, 0
98726500, 1, 4
98743132, 9, 4
98759780, 0, 16
98777460, 4, 4
98794104, 1, 4
98810740, 1, 16
98828424, 49, 9
98846104, 121, 4
98864828, 4, 36
98882500, 1, 4
98899140, 16, 1
98916812, 9, 4
98933456, 1, 25
98951128, 9, 25
98968824, 49, 25
98987544, 49, 9
99005220, 144, 0
99023948, 81, 1
99041624, 36, 9
99059288, 25, 0
99076980, 16, 1
99094656, 36, 4
99112348, 0, 4
99128980, 81, 16
99147692, 36, 1
99165384, 0, 1
99182028, 9, 1
99198660, 16, 16
99217368, 100, 9
99236104, 36, 4
99253776, 9, 9
99270420, 25, 25
99289140, 100, 16
99308904, 4, 1
99325536, 9, 0
99342172, 49, 16
99360904, 196, 9
99379616, 289, 16
99399372, 100, 36
99419132, 36, 1
99436832, 16, 1
99454504, 0, 4
99471136, 1, 9
99487776, 4, 16
99505464, 4, 4
99522108, 16, 49
99540820, 4, 36
99558504, 4, 0
99575132, 36, 0
99592812, 1, 9
99609464, 25, 9
99627140, 1, 0
99643788, 1, 0
99660420, 49, 0
99678100, 25, 1
99695792, 49, 9
99713464, 25, 25
99732180, 16, 0
99749860, 49, 1
99767548, 225, 0
99786264, 169, 9
99804980, 0, 4
99821628, 1, 1
99838260, 4, 16
99855940, 25, 4
99873616, 100, 1
99892344, 25, 1
99910020, 36, 1
99927692, 36, 36
99946408, 25, 16
99965152, 0, 4
99981780, 36, 16
100000500, 16, 16
100020260, 4, 0
100037936, 0, 16
100056660, 9, 36
100075388, 121, 1
100095140, 169, 9
100114896, 64, 9
100133616, 64, 0
100152344, 25, 1
100171060, 4, 25
100189776, 0, 9
100207460, 49, 25
100227236, 4, 16
100245932, 49, 0
100264660, 1, 1
100282332, 9, 16
100301068, 1, 0
100318748, 1, 9
100336428, 0, 4
100354100, 1, 4
100371780, 4, 0
100389452, 4, 1
100407140, 1, 25
100425860, 0, 9
100443536, 9, 0
100461224, 25, 1
100479928, 25, 0
100498668, 9, 4
100516336, 196, 16
100537140, 36, 49
100556908, 36, 0
100575628, 0, 1
100593304, 64, 1
100612008, 16, 1
100630752, 25, 4
100649460, 16, 9
100668176, 1, 0
100685868, 0, 9
100703544, 25, 36
100723308, 16, 9
100742016, 25, 1
100760736, 0, 1
100778420, 9, 4
100796096, 0, 36
100814812, 1, 4
100832504, 25, 0
100851236, 49, 1
100869944, 4, 1
100887616, 9, 0
100905296, 4, 64
100924024, 4, 25
100942744, 9, 0
100960428, 16, 0
100979144, 4, 16
100997856, 121, 25
101018656, 196, 36
101039464, 1, 36
101058188, 16, 0
101076892, 36, 1
101095628, 100, 0
101115376, 64, 9
101134088, 64, 9
101152820, 36, 0
101171540, 1, 4
101189216, 1, 1
101206896, 4, 0
101224596, 4, 49
101243308, 0, 49
101262012, 0, 1
101279688, 0, 4
101297376, 1, 0
101315060, 1, 25
101333772, 0, 1
101351464, 1, 16
101370180, 0, 16
101388900, 1, 0
101406568, 4, 1
101424260, 16, 64
101444020, 81, 49
101463784, 100, 4
101483552, 9, 0
101501220, 25, 4
101519932, 36, 4
101538656, 0, 1
101556352, 36, 0
101575064, 49, 4
101593788, 9, 0
101611448, 9, 0
101629140, 4, 4
101646808, 0, 49
101665548, 1, 49
101684268, 49, 4
101702980, 64, 36
101722736, 25, 4
101741452, 9, 4
101759144, 49, 4
101777868, 81, 1
101796584, 0, 1
101814252, 16, 16
101834020, 36, 0
101852740, 16, 0
101871464, 1, 0
101889132, 0, 0
101906828, 0, 16
101925544, 36, 9
101944252, 100, 16
101965068, 9, 36
101983780, 0, 25
102002504, 0, 4
102020176, 25, 0
102038900, 16, 1
102057620, 1, 0
102075292, 1, 1
102092980, 0, 36
102111704, 1, 9
102129368, 0, 0
102147052, 1, 16
102165780, 0, 0
102183468, 0, 16
102202180, 1, 0
102219860, 0, 1
102237540, 16, 0
102256264, 4, 4
102273944, 1, 1
102291628, 4, 16
102310332, 0, 9
102328016, 1, 1
102345688, 0, 25
102364420, 0, 9
102382116, 1, 25
102400820, 0, 9
102418508, 1, 0
102436180, 0, 9
102453856, 0, 1
102471532, 0, 25
102490264, 0, 9
102507940, 1, 0
102525612, 0, 9
102543284, 0, 1
102560988, 0, 25
102579700, 1, 9
102597380, 1, 0
102615056, 0, 25
102633784, 0, 16
102652504, 1, 1
102670176, 0, 4
102687860, 0, 1
102705540, 1, 4
102723212, 0, 0
102740888, 0, 64
102759620, 0, 4
102777300, 0, 0
102794980, 0, 16
102813708, 0, 4
102831392, 0, 25
102850096, 1, 4
102867772, 1, 1
102885460, 4, 9
102903144, 9, 4
102920816, 0, 81
102939540, 4, 9
102957224, 4, 0
102974896, 0, 16
102993616, 0, 0
103011292, 0, 25
103030024, 0, 0
103047708, 1, 4
103065372, 0, 4
103083056, 0, 9
103100740, 0, 64
103119460, 1, 4
103137140, 1, 0
103154824, 0, 1
103172504, 0, 4
103190184, 0, 49
103208896, 1, 4
103226580, 4, 0
103244260, 0, 9
103261940, 0, 1
103279620, 0, 49
103298348, 0, 16
103317048, 1, 0
103334732, 4, 0
103352432, 1, 9
103370112, 1, 49
103388824, 4, 1
103406492, 1, 4
103424180, 0, 4
103441848, 0, 9
103459536, 0, 64
103478256, 1, 9
103495948, 4, 0
103513624, 0, 9
103531296, 0, 0
103548992, 0, 49
103567704, 0, 16
103586412, 1, 0
103604092, 1, 1
103621780, 1, 16
103640488, 0, 16
103659220, 0, 25
103677936, 0, 16
103696660, 0, 0
103714344, 0, 0
103732008, 0, 25
103750740, 1, 16
103769476, 1, 4
103787144, 0, 0
103804812, 0, 1
103822500, 0, 9
103840176, 0, 1
103857864, 0, 36
103876576, 0, 4
103894268, 1, 1
103911928, 0, 25
103930664, 1, 4
103948352, 0, 16
103967064, 0, 9
103984740, 1, 0
104002412, 1, 4
104020096, 0, 9
104037780, 0, 64
104056500, 1, 16
104075212, 4, 0
104092900, 0, 1
104110584, 0, 9
104128272, 0, 36
104146980, 1, 0
104164656, 1, 0
104182332, 1, 4
104200020, 1, 4
104217696, 0, 49
104236432, 0, 1
104254104, 1, 1
104271772, 0, 16
104290504, 0, 0
104308188, 0, 4
104325856, 0, 4
104343528, 0, 4
104361220, 0, 9
104378900, 0, 1
104396576, 0, 64
104415308, 0, 16
104434024, 1, 0
104451688, 0, 1
104469380, 0, 9
104487060, 0, 49
104505776, 1, 4
104523452, 9, 1
104541124, 4, 9
104558820, 0, 4
104576500, 0, 64
104595216, 1, 16
104613940, 4, 0
104631620, 0, 1
104649292, 0, 16
104668020, 0, 16
104686748, 1, 4
104704420, 0, 0
104722100, 1, 0
104739768, 0, 9
104757468, 1, 0
104775144, 1, 36
104793856, 0, 4
104811544, 1, 0
104829216, 0, 16
104847936, 0, 9
104865624, 0, 25
104884344, 0, 9
104902020, 1, 0
104919692, 0, 9
104937372, 0, 1
104955068, 0, 64
104973784, 0, 9
104991460, 1, 0
105009132, 0, 16
105027872, 0, 1
105045548, 0, 25
105064264, 0, 4
105081940, 0, 1
105099608, 0, 4
105117288, 1, 4
105134980, 0, 49
105153708, 1, 4
105171384, 0, 0
105189060, 0, 9
105206732, 0, 0
105224420, 0, 36
105243132, 0, 9
105260812, 1, 0
105278500, 0, 9
105296180, 0, 1
105313860, 0, 49
105332580, 0, 9
105350260, 1, 0
105367936, 0, 16
105386664, 0, 4
105404332, 0, 36
105423064, 0, 9
105440736, 0, 1
105458424, 0, 16
105477140, 0, 0
105494816, 0, 9
105512500, 0, 1
105530180, 0, 9
105547872, 1, 16
105566588, 0, 0
105584268, 0, 16
105602976, 0, 0
105620672, 4, 1
105638336, 0, 4
105656020, 1, 9
105673688, 0, 64
105692420, 0, 9
105710108, 4, 0
105727780, 0, 4
105745468, 0, 4
105763140, 0, 49
105781856, 0, 9
105799528, 4, 0
105817220, 0, 9
105834900, 0, 1
105852580, 0, 49
105871296, 0, 9
105888992, 1, 0
105906660, 0, 9
105924344, 0, 1
105942024, 1, 25
105960744, 0, 4
105978412, 1, 0
105996092, 0, 9
106013788, 1, 1
106031468, 0, 25
106050180, 1, 9
106067860, 1, 0
106085540, 0, 25
106104260, 0, 16
106122988, 1, 4
106140660, 0, 1
106158340, 0, 4
106176020, 1, 4
106193688, 0, 0
106211388, 0, 49
106230100, 0, 9
106247780, 1, 0
106265460, 0, 16
106284192, 0, 4
106301860, 0, 25
106320572, 0, 4
106338248, 0, 1
106355944, 0, 9
106373612, 0, 1
106391292, 0, 64
106410028, 1, 9
106427712, 1, 0
106445376, 0, 9
106463056, 0, 0
106480744, 0, 16
106499464, 0, 4
106517132, 1, 0
106534812, 0, 9
106552508, 1, 0
106570176, 0, 49
106588900, 0, 9
106606572, 1, 0
106624264, 1, 16
106642984, 0, 4
106660660, 0, 25
106679380, 0, 9
106697056, 1, 0
106714728, 0, 4
106732416, 1, 4
106750104, 0, 64
106768820, 0, 9
106786500, 1, 0
106804172, 0, 9
106821868, 0, 0
106839544, 0, 25
106858252, 0, 4
106875940, 1, 0
106893620, 0, 9
106911300, 0, 1
106928980, 0, 25
106947700, 0, 4
106965388, 1, 0
106983056, 0, 25
107001776, 0, 16
107020508, 1, 4
107038184, 0, 0
107055852, 0, 1
107073524, 0, 4
107091220, 0, 1
107108908, 0, 49
107127620, 0, 4
107145308, 1, 0
107162988, 0, 9
107180660, 0, 1
107198344, 0, 9
107216020, 0, 9
107233696, 4, 9
107251380, 1, 4
107269052, 0, 64
107287788, 0, 9
107305452, 4, 0
107323140, 0, 1
107340824, 0, 0
107358504, 0, 36
107377212, 0, 9
107394888, 1, 0
107412576, 1, 9
107430260, 0, 0
107447928, 0, 25
107466656, 0, 4
107484336, 0, 0
107502012, 0, 16
107520736, 1, 4
107538408, 0, 25
107557144, 0, 4
107574816, 4, 0
107592492, 0, 4
107610180, 0, 4
107627864, 0, 64
107646580, 1, 9
107664264, 1, 0
107681944, 0, 1
107699628, 1, 0
107717304, 1, 25
107736008, 0, 1
107753696, 1, 0
107771376, 0, 4
107789052, 0, 0
107806752, 0, 25
107825468, 1, 4
107843140, 4, 1
107860816, 1, 36
107879544, 0, 4
107897228, 1, 36
107915932, 1, 9
107933604, 1, 0
107951300, 0, 9
107968972, 0, 1
107986660, 0, 49
108005372, 1, 4
108023068, 4, 0
108040740, 0, 16
108059456, 0, 0
108077140, 0, 25
108095864, 0, 1
108113532, 1, 1
108131212, 0, 4
108148908, 1, 9
108166576, 0, 81
108185300, 1, 9
108202972, 1, 0
108220664, 0, 1
108238336, 0, 4
108256024, 0, 49
108274744, 0, 9
108292416, 1, 0
108310092, 0, 9
108327780, 1, 4
108345468, 0, 49
108364192, 0, 4
108381860, 1, 0
108399524, 0, 16
108418268, 0, 4
108435944, 0, 25
108454668, 0, 1
108472336, 1, 4
108490020, 0, 9
108507688, 0, 1
108525368, 1, 49
108544108, 1, 4
108561792, 1, 0
108579456, 0, 9
108597132, 0, 0
108614824, 0, 25
108633532, 0, 4
108651212, 1, 1
108668884, 0, 16
108687616, 0, 0
108705308, 0, 25
108724016, 0, 0
108741708, 1, 0
108759384, 0, 1
108777052, 0, 4
108794732, 0, 64
108813460, 1, 4
108831140, 1, 1
108848808, 0, 9
108866484, 1, 1
108884188, 0, 49
108902900, 0, 4
108920580, 1, 1
108938264, 0, 4
108955940, 0, 0
108973620, 0, 25
108992336, 0, 9
109010016, 4, 0
109027700, 0, 4
109045372, 0, 0
109063056, 0, 36
109081780, 1, 9
109099460, 1, 0
109117140, 0, 25
109135848, 0, 4
109153544, 0, 36
109172272, 0, 4
109189928, 0, 1
109207620, 0, 9
109225300, 1, 4
109242976, 0, 64
109261700, 1, 9
109279388, 1, 0
109297060, 0, 16
109315776, 0, 4
109333464, 0, 16
109352188, 0, 1
109369852, 0, 0
109387532, 0, 4
109405216, 0, 4
109422896, 0, 64
109441620, 1, 4
109459300, 1, 0
109476988, 0, 4
109494664, 0, 1
109512340, 1, 49
109531048, 0, 9
109548740, 1, 0
109566420, 0, 16
109585128, 0, 0
109602804, 0, 9
109620500, 0, 1
109638184, 0, 0
109655856, 0, 16
109674584, 0, 1
109692260, 1, 25
109710976, 1, 4
109728648, 0, 0
109746340, 0, 1
109764012, 0, 4
109781696, 0, 64
109800416, 0, 9
109818108, 1, 0
109835772, 0, 16
109854508, 1, 4
109872184, 0, 9
109889864, 0, 0
109907544, 1, 1
109925216, 0, 9
109942896, 1, 0
109960588, 0, 49
109979300, 0, 9
109996972, 1, 0
110014656, 0, 16
110033376, 0, 9
110051064, 1, 25
110069784, 0, 4
110087460, 1, 0
110105132, 0, 4
110122820, 1, 1
110140504, 0, 64
110159228, 0, 9
110176904, 1, 0
110194576, 0, 9
110212264, 1, 0
110229932, 0, 36
110248652, 0, 9
110266324, 4, 0
110284020, 0, 9
110301692, 0, 1
110319380, 1, 36
110338108, 0, 4
110355788, 1, 0
110373456, 1, 16
110392184, 0, 1
110409872, 1, 36
110428584, 0, 9
110446248, 1, 0
110463924, 0, 9
110481620, 0, 1
110499300, 0, 49
110518020, 0, 9
110535708, 1, 0
110553380, 0, 16
110572104, 0, 1
110589780, 1, 36
110608500, 0, 1
110626180, 4, 1
110643848, 0, 16
110662564, 0, 0
110680256, 1, 4
110697940, 0, 4
110715616, 1, 4
110733292, 0, 9
110750980, 0, 0
110768664, 0, 36
110787380, 1, 4
110805064, 16, 1
110823784, 0, 1
110841448, 0, 25
110860180, 0, 25
110878912, 1, 16
110897620, 0, 9
110915304, 0, 0
110932972, 0, 16
110951704, 0, 0
110969388, 0, 9
110987056, 0, 4
111004740, 0, 9
111022424, 1, 9
111040092, 0, 4
111057776, 0, 64
111076512, 0, 9
111094180, 4, 0
111111852, 0, 9
111129528, 1, 0
111147220, 0, 25
111165932, 0, 4
111183612, 4, 0
111201304, 0, 25
111220028, 1, 4
111237708, 0, 36
111256420, 1, 9
111274100, 1, 0
111291780, 0, 9
111309464, 1, 1
111327140, 0, 49
111345860, 1, 4
111363532, 0, 0
111381208, 1, 9
111398884, 4, 0
111416576, 16, 36
111436332, 9, 16
111455052, 4, 0
111472748, 1, 1
111490420, 1, 16
111509136, 0, 4
111526816, 0, 49
111545544, 0, 25
111564256, 0, 1
111581932, 0, 0
111599604, 1, 16
111618340, 0, 4
111636020, 0, 16
111654736, 1, 16
111673460, 1, 0
111691148, 1, 1
111708820, 1, 9
111726500, 0, 64
111745224, 4, 4
111762892, 1, 1
111780568, 0, 4
111798244, 0, 4
111815944, 0, 49
111834672, 4, 4
111852340, 1, 4
111870020, 0, 25
111888748, 0, 0
111906428, 0, 16
111925136, 0, 0
111942820, 0, 1
111960488, 0, 4
111978176, 1, 4
111995844, 0, 49
112014588, 1, 4
112032252, 4, 1
112049940, 0, 4
112067624, 1, 9
112085304, 0, 49
112104016, 0, 4
112121692, 0, 1
112139380, 0, 4
112157060, 0, 4
112174740, 0, 49
112193452, 1, 4
112211148, 1, 0
112228816, 0, 16
112247536, 0, 1
112265212, 0, 25
112283944, 0, 1
112301608, 0, 1
112319296, 1, 1
112336980, 0, 16
112355700, 0, 25
112374424, 0, 9
112392092, 0, 9
112409780, 1, 0
112427456, 0, 25
112446176, 0, 16
112464908, 1, 4
112482584, 0, 1
112500260, 0, 4
112517940, 0, 9
112535620, 0, 0
112553312, 0, 36
112572020, 0, 4
112589704, 1, 0
112607392, 0, 9
112625064, 0, 4
112642740, 0, 9
112660404, 0, 9
112678100, 0, 4
112695768, 0, 4
112713460, 0, 49
112732188, 1, 9
112749868, 1, 0
112767540, 0, 4
112785224, 0, 1
112802900, 0, 25
112821624, 0, 4
112839288, 0, 0
112856972, 0, 9
112874656, 0, 0
112892348, 1, 36
112911060, 0, 4
112928736, 1, 0
112946428, 0, 16
112965152, 0, 4
112982824, 0, 36
113001544, 0, 9
113019216, 1, 0
113036888, 0, 4
113054580, 1, 1
113072260, 0, 49
113090988, 0, 4
113108652, 1, 0
113126324, 0, 9
113144020, 0, 0
113161704, 1, 25
113180412, 0, 4
113198100, 0, 0
113215780, 0, 4
113233452, 0, 0
113251140, 0, 36
113269868, 0, 4
113287544, 1, 0
113305216, 1, 16
113323936, 0, 9
113341624, 0, 25
113360336, 1, 9
113378008, 0, 0
113395684, 0, 4
113413376, 0, 0
113431064, 1, 36
113449780, 0, 9
113467468, 0, 0
113485136, 0, 16
113503856, 0, 0
113521544, 1, 25
113540264, 0, 4
113557928, 1, 0
113575612, 0, 1
113593284, 0, 4
113610988, 0, 64
113629700, 1, 9
113647368, 4, 0
113665068, 1, 9
113682744, 0, 0
113700424, 0, 36
113719144, 0, 9
113736816, 0, 0
113754500, 0, 4
113772180, 1, 1
113789852, 0, 64
113808588, 1, 9
113826256, 1, 0
113843940, 0, 9
113861616, 0, 1
113879312, 0, 16
113898024, 0, 4
113915700, 1, 0
113933380, 0, 9
113951060, 0, 4
113968744, 0, 9
113986420, 0, 9
114004112, 4, 9
114021784, 0, 0
114039460, 0, 25
114058168, 0, 4
114075856, 4, 0
114093528, 0, 16
114112248, 0, 0
114129948, 0, 25
114148672, 0, 1
114166340, 1, 0
114184020, 0, 4
114201704, 1, 4
114219384, 0, 49
114238092, 0, 4
114255772, 1, 1
114273464, 0, 4
114291140, 0, 1
114308820, 1, 49
114327524, 0, 9
114345220, 0, 0
114362908, 1, 9
114380584, 1, 4
114398272, 4, 64
114416980, 25, 16
114436732, 49, 1
114455456, 25, 1
114474184, 25, 0
114492904, 1, 4
114510576, 4, 4
114528252, 0, 64
114546988, 4, 9
114564660, 4, 0
114582336, 0, 25
114601060, 0, 0
114618740, 9, 16
114637456, 4, 0
114655136, 0, 1
114672820, 0, 0
114690504, 0, 4
114708176, 0, 36
114726896, 9, 4
114744580, 4, 1
114762268, 0, 9
114779936, 0, 1
114797632, 0, 49
114816344, 1, 9
114834012, 1, 0
114851692, 1, 4
114869388, 0, 1
114887072, 0, 49
114905780, 1, 9
114923444, 1, 0
114941140, 0, 16
114959868, 1, 1
114977544, 0, 25
114996264, 0, 4
115013940, 0, 1
115031608, 4, 0
115049288, 4, 9
115066976, 0, 49
115085700, 0, 9
115103372, 1, 0
115121056, 0, 9
115138744, 1, 0
115156416, 0, 16
115175132, 4, 0
115192816, 4, 0
115210508, 1, 1
115228188, 9, 0
115245860, 1, 36
115264580, 0, 9
115282260, 1, 0
115299932, 0, 16
115318652, 0, 4
115336340, 0, 16
115355052, 0, 4
115372736, 1, 0
115390400, 0, 4
115408100, 1, 1
115425768, 0, 36
115444488, 0, 9
115462176, 1, 4
115479860, 0, 25
115498584, 4, 0
115516268, 0, 9
115533956, 0, 0
115551620, 1, 1
115569292, 0, 4
115586972, 0, 0
115604664, 1, 36
115623376, 0, 9
115641060, 1, 0
115658724, 0, 16
115677472, 4, 1
115695148, 1, 25
115713852, 0, 4
115731544, 1, 9
115749224, 0, 25
115767932, 0, 0
115785608, 0, 9
115803300, 1, 1
115820980, 1, 9
115838660, 0, 16
115857372, 0, 1
115875064, 4, 16
115893780, 0, 1
115911452, 0, 0
115929136, 1, 0
115946816, 1, 1
115964488, 0, 36
115983208, 0, 9
116000900, 1, 0
116018580, 0, 4
116036264, 0, 0
116053940, 0, 36
116072660, 0, 9
116090340, 1, 0
116108012, 0, 1
116125684, 0, 0
116143380, 0, 25
116162100, 0, 9
116179780, 1, 0
116197464, 0, 9
116215148, 0, 4
116232828, 1, 9
116250492, 0, 4
116268180, 0, 1
116285860, 0, 4
116303532, 0, 36
116322256, 0, 1
116339944, 0, 0
116357616, 0, 9
116375300, 1, 1
116392980, 0, 16
116411700, 1, 4
116429372, 4, 1
116447048, 4, 4
116464740, 9, 0
116482428, 9, 36
116501140, 4, 16
116519856, 1, 0
116537552, 1, 4
116555216, 0, 4
116572892, 0, 49
116591624, 1, 9
116609300, 4, 0
116626976, 1, 4
116644660, 0, 1
116662344, 0, 36
116681068, 1, 9
116698732, 4, 0
116716424, 0, 4
116734108, 0, 0
116751788, 0, 121
116771536, 1, 121
116791292, 9, 16
116810032, 1, 1
116827700, 0, 0
116845372, 1, 9
116863056, 0, 0
116880740, 0, 16
116899460, 1, 4
116917140, 1, 0
116934832, 0, 16
116953536, 0, 16
116972264, 0, 1
116989932, 1, 0
117007620, 0, 1
117025296, 0, 9
117042980, 1, 1
117060656, 0, 9
117078344, 0, 16
117097048, 0, 4
117114732, 0, 4
117132424, 1, 4
117150112, 0, 4
117167772, 0, 4
117185444, 1, 4
117203140, 1, 1
117220812, 0, 36
117239540, 0, 4
117257212, 1, 0
117274904, 0, 9
117292580, 0, 0
117310264, 0, 25
117328980, 0, 9
117346660, 4, 0
117364328, 0, 9
117382008, 0, 0
117399700, 0, 25
117418408, 0, 9
117436096, 0, 0
117453772, 0, 16
117472504, 0, 9
117490184, 0, 16
117508904, 0, 9
117526580, 1, 0
117544252, 0, 4
117561932, 0, 1
117579620, 0, 49
117598348, 0, 4
117616020, 1, 0
117633692, 0, 9
117651372, 0, 1
117669064, 0, 9
117686732, 0, 4
117704412, 0, 1
117722084, 0, 1
117739780, 0, 36
117758508, 0, 9
117776168, 0, 0
117793864, 0, 4
117811544, 1, 0
117829224, 0, 16
117847940, 0, 4
117865624, 0, 1
117883300, 0, 9
117900980, 1, 0
117918656, 1, 25
117937388, 0, 9
117955056, 1, 0
117972740, 1, 9
117990436, 1, 1
118008112, 1, 25
118026816, 0, 9
118044492, 1, 0
118062168, 0, 9
118079856, 0, 9
118097540, 1, 4
118115216, 0, 4
118132904, 0, 4
118150576, 0, 0
118168264, 0, 25
118186972, 0, 4
118204660, 1, 1
118222332, 0, 9
118240008, 0, 0
118257696, 0, 25
118276424, 1, 4
118294100, 1, 1
118311784, 0, 16
118330508, 0, 1
118348184, 0, 16
118366900, 0, 9
118384572, 1, 0
118402260, 0, 1
118419940, 1, 1
118437620, 0, 49
118456344, 0, 16
118475060, 1, 0
118492744, 1, 1
118510420, 0, 4
118528104, 0, 36
118546832, 1, 1
118564504, 1, 4
118582172, 0, 9
118599860, 1, 1
118617540, 1, 36
118636256, 0, 1
118653924, 1, 4
118671620, 0, 9
118689308, 1, 0
118706984, 0, 25
118725704, 1, 4
118743380, 1, 0
118761052, 0, 1
118778732, 0, 0
118796420, 0, 25
118815140, 0, 4
118832812, 0, 0
118850492, 1, 9
118868180, 4, 0
118885864, 1, 16
118904576, 0, 4
118922256, 1, 0
118939940, 0, 9
118957612, 0, 4
118975296, 0, 9
118992976, 1, 4
119010672, 1, 4
119028332, 0, 0
119046024, 0, 25
119064740, 0, 9
119082412, 4, 1
119100092, 0, 1
119117772, 0, 0
119135456, 0, 25
119154172, 0, 4
119171860, 1, 0
119189544, 0, 9
119207224, 0, 4
119224900, 0, 9
119242580, 0, 4
119260260, 0, 1
119277936, 0, 4
119295612, 0, 49
119314332, 0, 9
119332020, 1, 0
119349696, 0, 9
119367380, 1, 0
119385060, 0, 25
119403792, 0, 16
119422508, 1, 0
119440168, 0, 0
119457856, 0, 9
119475536, 0, 36
119494256, 1, 4
119511932, 1, 1
119529624, 0, 9
119547316, 1, 1
119564976, 0, 36
119583688, 0, 9
119601368, 0, 0
119619052, 0, 4
119636732, 0, 0
119654428, 0, 49
119673144, 1, 16
119691856, 1, 0
119709536, 0, 1
119727224, 0, 4
119744904, 0, 36
119763612, 0, 4
119781284, 0, 1
119798980, 0, 4
119816660, 0, 1
119834340, 0, 36
119853044, 0, 9
119870736, 1, 0
119888432, 0, 4
119906092, 0, 1
119923788, 0, 16
119942500, 0, 4
119960172, 1, 0
119977848, 0, 4
119995540, 0, 0
120013232, 1, 25
120031940, 0, 4
120049616, 4, 0
120067308, 0, 9
120084984, 1, 9
120102660, 0, 9
120120352, 0, 16
120139060, 1, 4
120156740, 1, 4
120174416, 0, 9
120192096, 0, 4
120209776, 0, 4
120227452, 0, 9
120245132, 0, 0
120262832, 1, 16
120281544, 0, 4
120299216, 1, 0
120316884, 0, 9
120334576, 0, 0
120352260, 0, 25
120370972, 0, 9
120388660, 4, 0
120406336, 0, 16
120425060, 0, 9
120442740, 1, 25
120461460, 0, 9
120479140, 0, 0
120496808, 0, 4
120514492, 1, 0
120532180, 0, 25
120550900, 0, 4
120568584, 1, 0
120586272, 0, 4
120603948, 0, 1
120621624, 1, 16
120640344, 1, 4
120658020, 0, 0
120675696, 0, 9
120693368, 0, 0
120711060, 0, 81
120729780, 0, 25
120748504, 0, 0
120766184, 0, 4
120783848, 0, 0
120801544, 1, 25
120820272, 0, 9
120837928, 1, 0
120855616, 0, 9
120873300, 1, 0
120890980, 0, 16
120909700, 0, 4
120927380, 1, 1
120945068, 0, 16
120963780, 0, 1
120981456, 1, 16
121000180, 0, 1
121017852, 0, 1
121035532, 1, 1
121053220, 1, 4
121070904, 9, 100
121090664, 64, 64
121110416, 49, 1
121129140, 0, 1
121146816, 1, 4
121164492, 49, 36
121184252, 121, 36
121205060, 36, 1
121223776, 0, 0
121241468, 9, 1
121259140, 16, 0
121277860, 4, 4
121295536, 9, 9
121313204, 64, 0
121331940, 49, 9
121350656, 9, 1
121368336, 4, 16
121387060, 36, 1
121405780, 0, 1
121423460, 9, 4
121441140, 25, 4
121459856, 121, 16
121480652, 16, 4
121499376, 0, 1
121517048, 0, 16
121535788, 0, 4
121553464, 4, 1
121571144, 0, 1
121588828, 36, 36
121608576, 9, 64
121627296, 1, 25
121646020, 1, 4
121663708, 25, 9
121682416, 4, 16
121701140, 121, 36
121721948, 1, 25
121740664, 1, 0
121758336, 0, 9
121776020, 1, 4
121793704, 4, 9
121811380, 1, 9
121829060, 1, 1
121846736, 196, 1
121866508, 256, 0
121886264, 9, 1
121903948, 225, 1
121923708, 9, 0
121941380, 64, 0
121960096, 9, 0
121977776, 121, 9
121997540, 100, 4
122017304, 25, 0
122036020, 16, 16
122055780, 121, 16
122076588, 81, 1
122095300, 100, 64
122116092, 4, 144
122135856, 25, 36
122155620, 1, 36
122174348, 0, 25
122193068, 25, 1
122211776, 121, 1
122231540, 121, 1
122251296, 81, 4
122270024, 121, 36
122290824, 144, 0
122310568, 25, 0
122329312, 400, 4
122349048, 144, 0
122368816, 9, 1
122386500, 1, 25
122405224, 0, 36
122423944, 16, 4
122442656, 25, 1
122461392, 9, 1
122479064, 16, 0
122497784, 4, 25
122516504, 36, 49
122536268, 1, 16
122554980, 25, 16
122574736, 361, 25
122595536, 576, 81
122616340, 25, 36
122636096, 289, 16
122656908, 4, 25
122675620, 81, 0
122694336, 16, 4
122713064, 9, 4
122730740, 0, 9
122748420, 0, 0
122766100, 64, 81
122785860, 9, 49
122804576, 36, 0
122823292, 25, 0
122842016, 25, 1
122860756, 4, 1
122878424, 144, 0
122898172, 81, 0
122916900, 9, 16
122935628, 4, 4
122953292, 36, 9
122972020, 16, 9
122990740, 64, 0
123009456, 25, 0
123028180, 225, 25
123048992, 729, 36
123069792, 121, 0
123089532, 25, 9
123108252, 1, 9
123125948, 49, 16
123145688, 64, 25
123165452, 36, 4
123184180, 49, 16
123203944, 81, 1
123222664, 0, 1
123240344, 4, 4
123258028, 36, 25
123277776, 121, 16
123298572, 4, 1
123316260, 0, 36
123334980, 0, 0
123352652, 25, 9
123371376, 1, 9
123389068, 441, 4
123408832, 484, 1
123428572, 9, 1
123446260, 400, 1
123466032, 144, 25
123486820, 16, 25
123506568, 100, 4
123526344, 49, 0
123545052, 4, 1
123562740, 0, 49
123581460, 4, 100
123601216, 0, 49
123619940, 16, 9
123638660, 121, 9
123658428, 25, 16
123678172, 196, 36
123698984, 4, 16
123717704, 9, 9
123735388, 36, 9
123754100, 25, 4
123772824, 121, 0
123792576, 324, 25
123813380, 25, 16
123833140, 49, 0
123851860, 16, 0
123870580, 16, 1
123889296, 36, 1
123908020, 1, 16
123926740, 49, 0
123945460, 144, 25
123966260, 9, 16
123984980, 81, 9
124003700, 121, 9
124023464, 9, 4
124041128, 64, 4
124059860, 25, 1
124078576, 9, 4
124096260, 81, 16
124116028, 196, 0
124135796, 25, 9
124154508, 0, 0
124172184, 1, 1
124189860, 16, 0
124208580, 1, 0
124226256, 16, 0
124244964, 121, 4
124264748, 4, 9
124282420, 36, 16
124302196, 0, 1
124319864, 16, 4
124338580, 25, 1
124357296, 25, 16
124377056, 100, 0
124396828, 441, 25
124417612, 256, 1
124437380, 49, 16
124457144, 64, 0
124475868, 16, 4
124494588, 0, 1
124512264, 1, 25
124530988, 9, 16
124549704, 36, 1
124568420, 100, 0
124588184, 25, 1
124606904, 49, 1
124625612, 25, 64
124645368, 25, 64
124665140, 36, 1
124683864, 0, 0
124701540, 121, 36
124722340, 100, 16
124743144, 49, 16
124762900, 81, 0
124781624, 16, 4
124800352, 36, 9
124819064, 49, 1
124837776, 64, 16
124857540, 16, 4
124876268, 81, 1
124894976, 169, 4
124914740, 64, 0
124933468, 0, 1
124951128, 4, 81
124969864, 36, 9
124988596, 9, 9
125006252, 81, 0
125024980, 16, 0
125043684, 25, 0
125062428, 25, 16
125082172, 169, 1
125101936, 256, 1
125121716, 9, 0
125139380, 49, 4
125158100, 16, 9
125176808, 36, 4
125195548, 144, 0
125215292, 100, 0
125235048, 0, 25
125253784, 9, 0
125271468, 49, 36
125291220, 144, 4
125310964, 0, 0
125328668, 0, 0
125346352, 9, 0
125364012, 4, 4
125381704, 9, 4
125399380, 0, 25
125418100, 121, 36
125438896, 196, 16
125459708, 169, 25
125480500, 121, 25
125501300, 4, 36
125520024, 121, 16
125540820, 49, 16
125560576, 1, 16
125579304, 36, 1
125598024, 64, 16
125617784, 0, 4
125635456, 36, 0
125654192, 64, 4
125672896, 0, 0
125690584, 25, 1
125709284, 9, 25
125728020, 9, 9
125745704, 36, 0
125764428, 144, 4
125784180, 9, 16
125802900, 9, 16
125821620, 25, 0
125840336, 25, 16
125860104, 16, 16
125879864, 196, 36
125900656, 361, 64
125921460, 121, 25
125942252, 64, 1
125960980, 4, 0
125978664, 256, 64
125999464, 100, 81
126020256, 196, 9
126040020, 324, 16
126060824, 1, 1
126078512, 64, 25
126098260, 324, 36
126119068, 36, 0
126137784, 36, 36
126157536, 1, 25
126176248, 100, 4
126196020, 36, 9
126214744, 1, 4
126232428, 25, 36
126252184, 49, 9
126270900, 441, 1
126290664, 196, 9
126310432, 4, 4
126328104, 9, 4
126345772, 16, 0
126364492, 441, 9
126384256, 36, 25
126404020, 64, 9
126422740, 0, 0
126440412, 16, 121
126461216, 144, 16
126482012, 1681, 81
126503852, 841, 64
126524664, 0, 9
126542352, 169, 16
126563140, 1024, 81
126584976, 400, 196
126606816, 81, 324
126627608, 64, 144
126648420, 196, 64
126669204, 676, 81
126690012, 225, 64
126710824, 64, 1
126729548, 16, 0
126748252, 100, 36
126769052, 100, 0
126788824, 4, 81
126807536, 576, 9
126827304, 256, 25
126848108, 36, 0
126866824, 484, 9
126886572, 196, 25
126907368, 81, 9
126926112, 1, 16
126944824, 0, 4
126962508, 36, 1
126981220, 64, 4
126999936, 1, 16
127018656, 289, 16
127039452, 784, 121
127061304, 529, 9
127081064, 0, 1
127098732, 81, 4
127117468, 0, 1
127135144, 36, 0
127153856, 676, 49
127174640, 441, 100
127196504, 16, 16
127216260, 9, 1
127233940, 4, 16
127252660, 324, 36
127273448, 1156, 16
127295300, 100, 121
127317144, 625, 0
127336900, 100, 9
127356652, 81, 16
127376416, 441, 9
127396184, 144, 49
127416984, 400, 4
127436736, 1225, 4
127457548, 961, 9
127477300, 25, 81
127497068, 196, 16
127517868, 64, 16
127537624, 9, 1
127555300, 9, 1
127572972, 16, 25
127592736, 36, 9
127611460, 25, 1
127630180, 9, 0
127647872, 64, 0
127666580, 16, 0
127685304, 49, 1
127704012, 100, 9
127723788, 81, 16
127743532, 0, 25
127762248, 121, 0
127782024, 196, 9
127801788, 1, 0
127819460, 225, 1
127839208, 36, 0
127857940, 9, 0
127875632, 36, 0
127894332, 625, 4
127914100, 289, 1
127933872, 0, 1
127951548, 9, 0
127969212, 36, 1
127987948, 225, 9
128007692, 1024, 81
128029540, 169, 36
128050340, 49, 1
128069060, 9, 0
128086744, 49, 1
128105456, 36, 16
128125220, 225, 25
128146016, 16, 4
128164740, 361, 1
128184496, 100, 4
128204248, 36, 0
128222976, 0, 0
128240660, 484, 1
128260424, 289, 16
128281216, 4, 25
128299936, 64, 9
128318656, 121, 16
128339460, 49, 1
128358176, 196, 25
128378976, 1, 16
128397700, 25, 0
128416420, 1, 4
128434096, 9, 0
128451796, 49, 1
128470508, 16, 9
128489228, 1, 4
128506904, 4, 4
128524584, 9, 0
128542248, 36, 49
128562012, 225, 36
128582828, 441, 1
128602568, 324, 0
128622344, 49, 0
128641056, 729, 16
128661864, 484, 49
128682664, 576, 16
128703452, 400, 25
128724260, 0, 16
128742988, 4, 4
128760656, 9, 9
128778344, 16, 1
128797072, 49, 49
128816816, 4, 9
128834488, 4, 4
128852184, 16, 16
128871940, 9, 1
128889628, 64, 1
128908348, 225, 16
128929144, 169, 4
128948896, 484, 4
128968652, 324, 25
128989464, 144, 4
129009220, 81, 9
129027936, 9, 25
129046656, 49, 0
129065384, 36, 9
129084096, 324, 16
129104900, 25, 1
129123624, 49, 16
129143376, 144, 36
129164180, 1, 16
129182904, 196, 4
129202656, 169, 0
129222424, 1, 4
129240104, 9, 0
129257780, 0, 1
129275464, 16, 1
129294180, 25, 4
129312908, 49, 1
129331632, 64, 9
129350340, 25, 9
129369056, 1, 1
129386744, 16, 1
129405468, 1, 1
129423128, 0, 0
129440824, 25, 0
129459540, 0, 1
129477216, 100, 4
129496984, 576, 36
129517784, 144, 49
129538596, 4, 1
129556272, 4, 9
129573940, 81, 64
129593700, 361, 16
129614504, 361, 1
129634244, 256, 16
129655068, 100, 4
129674812, 16, 1
129693528, 16, 0
129712272, 81, 1
129730976, 64, 0
129749688, 16, 9
129768412, 16, 9
129787148, 1, 9
129804828, 16, 1
129823536, 25, 4
129842268, 4, 0
129859952, 16, 49
129879700, 1, 16
129898412, 9, 0
129916104, 0, 1
129933788, 0, 1
129951468, 441, 25
129972260, 529, 121
129994108, 81, 0
130012820, 576, 144
130034652, 81, 144
130055464, 0, 36
130074176, 4, 16
130092900, 25, 0
130111620, 49, 36
130131380, 4, 4
130149052, 64, 1
130167776, 81, 4
130186504, 36, 1
130205236, 16, 1
130223940, 4, 1
130241620, 9, 25
130260340, 9, 16
130279056, 4, 0
130296736, 256, 1
130316496, 576, 25
130337300, 64, 4
130356016, 49, 9
130374744, 121, 1
130394504, 16, 16
130414264, 81, 0
130432972, 196, 1
130452744, 81, 1
130471464, 676, 25
130492256, 9, 16
130510976, 576, 1
130530732, 64, 9
130549464, 16, 0
130568176, 81, 16
130587944, 324, 0
130607708, 361, 9
130627460, 4, 25
130646176, 16, 25
130665940, 4, 1
130683616, 0, 9
130701288, 1, 36
130720024, 1, 1
130737700, 81, 36
130757452, 4, 16
130776200, 0, 0
130793868, 49, 4
130812572, 36, 16
130832324, 121, 4
130852112, 324, 1
130871860, 225, 4
130891620, 121, 0
130911380, 100, 0
130931132, 81, 9
130949860, 1, 0
130967532, 49, 36
130987296, 0, 16
131006016, 4, 1
131023692, 81, 16
131043460, 64, 4
131062180, 25, 0
131080900, 1, 9
131098572, 4, 0
131116272, 36, 36
131136028, 196, 4
131155780, 9, 0
131173456, 441, 49
131194252, 900, 81
131215068, 1, 4
131232740, 225, 25
131253540, 25, 16
131273292, 169, 1
131293048, 0, 0
131310740, 9, 1
131328424, 1, 1
131346096, 81, 9
131364808, 36, 16
131384580, 169, 16
131405372, 9, 0
131423056, 0, 9
131440744, 4, 9
131458432, 441, 0
131478180, 1369, 0
131498976, 576, 64
131519780, 289, 49
131540576, 121, 0
131560332, 676, 16
131581144, 1089, 25
131602984, 1, 9
131620656, 361, 64
131641464, 144, 4
131661220, 36, 9
131679928, 81, 1
131698660, 49, 0
131717380, 400, 1
131737128, 1521, 16
131758968, 441, 64
131779768, 2401, 16
131801624, 2809, 289
131824496, 256, 16
131845300, 144, 4
131865040, 5776, 64
131886888, 7225, 961
131909780, 1156, 676
131932660, 196, 16
131953456, 25, 676
131974252, 400, 1369
131997140, 100, 100
132018972, 324, 16
132039776, 361, 0
132059544, 144, 36
132080340, 441, 4
132100096, 36, 0
132118812, 0, 0
132136496, 256, 9
132156256, 196, 25
