Timestamp (micros),Sensor1 (mV),Sensor2 (mV)
0793864, 0, 0
104081257528, 0, 0
1040700248, 4, 0
1040718980, 9, 0
1040737700, 0, 1
1040756420, 1, 0
1040775124, 0, 0
1040793864, 0, 0
10408125751604, 7225, 9409
53816, 4900, 4356
56048, 1296, 81
58184, 225, 49
60280, 2601, 196
78336, 1, 324
93932, 25, 1
108492, 324, 361
127212, 6400, 64
145936, 7569, 256
165692, 4356, 361
185456, 4356, 64
204180, 1681, 1
221860, 81, 25
238492, 0, 4
253068, 225, 25
270740, 81, 4
286344, 1156, 25
305052, 1369, 25
323776, 1764, 196
343540, 361, 576
362268, 81, 81
378900, 1521, 49
397624, 1296, 100
417380, 25, 25
434024, 16, 4
449620, 9, 4
464180, 49, 49
480816, 1024, 1
498492, 15625, 625
519284, 23409, 1089
541132, 625, 144
559844, 3364, 64
578584, 1296, 1
596252, 1521, 9
613924, 5184, 196
633684, 256, 400
652428, 225, 4
669052, 144, 36
686744, 9, 1
701300, 36, 4
716896, 729, 0
733528, 4356, 49
752248, 2116, 169
772024, 16, 0
787628, 81, 4
803224, 4, 16
818804, 1764, 4
836500, 1521, 81
855228, 144, 64
872892, 3721, 49
891608, 8836, 289
911384, 5625, 361
931140, 9, 64
946720, 961, 25
964412, 1600, 16
983136, 729, 289
1001852, 324, 1
1019536, 529, 9
1037200, 4225, 324
1058000, 1156, 144
1078804, 6724, 100
1099608, 12769, 361
1121448, 324, 64
1140168, 17424, 289
1162012, 5476, 625
1182812, 4356, 4
1201528, 19881, 676
1223372, 6724, 841
1244184, 196, 81
1262896, 0, 0
1278504, 4489, 169
1299284, 1849, 361
1320096, 1849, 9
1338800, 8649, 169
1359616, 5625, 256
1380420, 121, 289
1400164, 324, 81
1418904, 3364, 121
1439688, 900, 169
1459468, 36, 9
1476104, 144, 25
1494816, 784, 81
1513544, 2116, 64
1533296, 841, 49
1552024, 36, 9
1568664, 441, 16
1587384, 64, 36
1605044, 144, 25
1623768, 9, 36
1640408, 5329, 64
1660188, 1156, 484
1680968, 2401, 4
1699688, 5041, 256
1720500, 1681, 49
1740240, 1849, 4
1758964, 8464, 121
1779772, 8281, 576
1800580, 5776, 361
1821372, 3600, 196
1842172, 3136, 225
1862996, 441, 144
1882732, 289, 4
1900408, 3025, 64
1920172, 484, 36
1938884, 10816, 49
1959688, 15129, 625
1981548, 841, 169
2001296, 841, 4
2018976, 100, 9
2036652, 1156, 36
2056420, 3136, 9
2075132, 441, 1
2092812, 7569, 144
2113608, 3600, 361
2134424, 1936, 36
2154180, 16, 16
2171856, 225, 1
2189532, 3025, 9
2208252, 3969, 324
2229048, 256, 4
2246732, 22801, 676
2268568, 30276, 1600
2291440, 1444, 625
2312256, 1600, 9
2330976, 121, 9
2348644, 4900, 100
2369452, 81, 49
2387148, 3249, 49
2406880, 3844, 121
2427692, 2500, 196
2448488, 3844, 49
2468248, 16641, 576
2490088, 576, 289
2509868, 2809, 324
2530660, 2025, 4
2549364, 15876, 1296
2572240, 10404, 400
2594088, 2601, 81
2613844, 16, 400
2632568, 1296, 36
2652328, 14161, 961
2674180, 6084, 484
2694968, 3600, 9
2713708, 7569, 81
2733456, 1849, 81
2753212, 64, 256
2771928, 289, 16
2790656, 169, 9
2808348, 784, 1
2826020, 9, 0
2841628, 529, 9
2859292, 2116, 9
2878012, 5184, 64
2897772, 289, 36
2916496, 1521, 25
2936248, 7396, 121
2957048, 5476, 256
2977856, 1156, 100
2998648, 3136, 16
3018408, 3600, 196
3039216, 841, 169
3058988, 169, 1
3076656, 196, 4
3094324, 12996, 144
3116160, 17161, 1369
3139056, 36, 361
3157768, 2500, 121
3178580, 2916, 0
3197296, 16, 4
3213928, 2500, 9
3232656, 576, 196
3252404, 49, 64
3270084, 1225, 64
3289856, 289, 49
3308584, 1, 4
3324184, 169, 9
3341868, 1296, 196
3362660, 1156, 49
3382424, 324, 4
3400088, 841, 49
3418820, 49, 25
3436488, 1521, 49
3456256, 324, 36
3474976, 2500, 81
3494732, 3600, 169
3515536, 676, 16
3534252, 1521, 25
3554008, 576, 100
3573772, 121, 4
3591452, 4096, 1
3610176, 1936, 324
3630992, 1, 4
3646576, 1, 64
3663220, 81, 36
3680892, 81, 25
3698580, 256, 100
3718352, 256, 9
3736024, 9, 4
3751608, 4489, 0
3770316, 10000, 441
3792192, 1681, 529
3812976, 144, 25
3831700, 256, 4
3849368, 1225, 144
3870168, 3249, 36
3889940, 400, 64
3908668, 81, 36
3926348, 36, 9
3942976, 36, 4
3959620, 81, 25
3977288, 1936, 49
3997052, 6724, 169
4017852, 3249, 324
4038664, 16, 4
4055304, 1225, 81
4075048, 1681, 49
4094820, 784, 25
4113548, 16, 9
4130180, 1681, 4
4148892, 5476, 64
4168636, 3481, 64
4188416, 1369, 25
4208180, 49, 25
4225852, 1764, 9
4244576, 256, 144
4264344, 2025, 16
4284100, 729, 196
4303852, 100, 36
4322572, 784, 64
4341292, 729, 0
4358980, 36, 49
4376672, 121, 16
4395384, 16, 1
4412016, 16, 16
4429696, 961, 9
4447384, 2304, 121
4468168, 900, 81
4486892, 256, 25
4505616, 2601, 36
4525380, 49, 144
4544084, 900, 25
4562808, 324, 81
4581552, 0, 9
4597148, 64, 9
4613772, 1600, 121
4634564, 441, 49
4653304, 400, 9
4670984, 676, 4
4688668, 81, 0
4705304, 729, 1
4722972, 1600, 64
4742728, 361, 121
4762488, 2025, 9
4781212, 11236, 289
4803044, 361, 400
4822808, 8100, 196
4843628, 2209, 361
4864432, 196, 100
4884176, 81, 1
4900804, 1936, 1
4919540, 961, 400
4939300, 64, 16
4956980, 3969, 361
4977780, 1444, 81
4997536, 1, 0
5013136, 196, 81
5031832, 2601, 100
5052652, 12544, 64
5073468, 9025, 900
5094264, 2304, 529
5115064, 361, 0
5132724, 1936, 1
5151448, 16, 1
5168084, 5329, 36
5187848, 2809, 225
5208660, 3364, 36
5228408, 64, 81
5246100, 2809, 9
5264816, 121, 81
5283532, 144, 100
5303272, 2209, 64
5323064, 3249, 100
5343860, 49, 121
5362576, 64, 16
5380260, 9, 4
5395864, 100, 9
5413532, 676, 16
5432256, 144, 49
5450992, 400, 9
5468656, 100, 36
5487372, 169, 25
5506100, 841, 25
5524824, 1024, 4
5543540, 100, 49
5562264, 144, 1
5579940, 25, 16
5597600, 81, 9
5614252, 441, 0
5631932, 196, 36
5650660, 25, 9
5667296, 100, 1
5684972, 36, 9
5701604, 256, 1
5719304, 100, 4
5736988, 81, 0
5753628, 25, 9
5770264, 49, 25
5787940, 169, 81
5806660, 121, 16
5825392, 841, 25
5844088, 121, 81
5862824, 1089, 1
5881536, 144, 49
5900256, 64, 16
5917952, 9, 1
5933544, 529, 81
5952252, 49, 0
5968900, 625, 9
5986584, 441, 121
6006344, 225, 1
6024024, 0, 9
6039640, 289, 0
6057312, 9, 16
6073940, 36, 4
6090572, 25, 16
6108268, 16, 25
6125952, 900, 1
6143624, 529, 9
6161300, 4, 9
6176908, 144, 0
6194584, 225, 16
6213292, 144, 1
6230968, 484, 4
6248676, 64, 16
6266340, 400, 4
6284016, 256, 16
6302740, 121, 4
6320420, 625, 25
6339140, 529, 49
6357852, 289, 25
6376592, 4, 4
6392176, 576, 9
6409860, 529, 36
6428576, 9, 1
6444188, 64, 4
6460804, 8464, 121
6481600, 20736, 1024
6504488, 6561, 676
6525296, 1849, 100
6546092, 1, 169
6563764, 1089, 16
6583544, 1, 49
6600184, 361, 16
6618908, 784, 16
6637604, 5476, 49
6657372, 11025, 729
6679208, 5625, 625
6700016, 729, 1
6717692, 2704, 49
6737448, 15876, 441
6759284, 11881, 1156
6782180, 3600, 361
6802988, 900, 25
6821704, 576, 121
6841468, 64, 144
6860176, 1849, 16
6879940, 3969, 196
6900740, 961, 16
6919468, 225, 4
6937132, 676, 81
6955860, 1296, 36
6975612, 2209, 36
6995368, 7225, 324
7016156, 225, 225
7035936, 4356, 121
7056740, 1, 121
7074424, 289, 100
7094172, 169, 9
7111856, 625, 4
7129528, 0, 400
7147220, 169, 25
7165932, 676, 144
7185712, 144, 9
7203360, 3600, 81
7223116, 5776, 169
7243928, 1089, 169
7264724, 1764, 121
7285532, 36, 9
7302184, 2209, 196
7322988, 121, 25
7341692, 256, 64
7360404, 2704, 121
7381216, 2304, 441
7402016, 400, 0
7419704, 625, 9
7437392, 1, 121
7455072, 289, 0
7472736, 64, 25
7490404, 1764, 9
7509124, 16, 25
7526808, 7569, 36
7546580, 2704, 625
7567388, 9, 16
7584008, 529, 1
7601696, 3721, 225
7622480, 13456, 400
7644340, 14641, 529
7666164, 5329, 729
7686956, 6724, 289
7707772, 2209, 169
7728576, 1600, 0
7747288, 2209, 169
7768096, 400, 36
7786820, 784, 1
7804492, 4761, 49
7824252, 1521, 121
7845064, 100, 1
7862736, 4, 49
7879372, 1089, 25
7899128, 1156, 49
7918908, 400, 0
7936572, 1296, 64
7956324, 4624, 324
7977132, 1089, 100
7997936, 784, 4
8015620, 784, 25
8034352, 169, 4
8052024, 49, 49
8069700, 196, 16
8088400, 841, 25
8107128, 3136, 121
8127932, 81, 36
8145616, 2209, 81
8165360, 1444, 49
8185144, 9, 9
8200748, 400, 9
8218400, 841, 9
8236100, 1225, 100
8256908, 225, 16
8275620, 4, 25
8292252, 324, 36
8310988, 144, 16
8329692, 4, 4
8345292, 49, 16
8362972, 9, 36
8379616, 1, 0
8395208, 0, 4
8410812, 49, 1
8427452, 625, 16
8446176, 2704, 169
8466976, 6724, 225
8487784, 1156, 441
8508576, 81, 121
8527288, 784, 4
8544976, 1764, 64
8564728, 441, 100
8584508, 36, 4
8601140, 121, 9
8618828, 1, 1
8634432, 324, 16
8653152, 9, 16
8669792, 225, 9
8687464, 16, 1
8704108, 900, 25
8722808, 1681, 64
8742584, 961, 25
8761280, 729, 25
8780024, 1600, 64
8799784, 324, 49
8818500, 225, 1
8836176, 361, 49
8854896, 3481, 49
8874644, 9216, 289
8895452, 1600, 289
8916264, 9, 0
8931848, 2500, 36
8951608, 7396, 441
8972424, 2116, 121
8993212, 1681, 36
9012968, 3136, 441
9033784, 441, 100
9053528, 625, 121
9073292, 169, 1
9090964, 1681, 100
9111784, 1156, 9
9130496, 64, 1
9147132, 784, 100
9166896, 2916, 121
9187708, 256, 4
9205384, 196, 4
9223056, 9, 25
9239708, 400, 4
9257388, 400, 16
9276108, 25, 49
9293776, 36, 4
9310420, 4, 4
9326012, 16, 1
9342660, 0, 4
9358256, 4, 4
9373864, 0, 4
9389460, 1, 4
9405052, 1, 0
9420664, 0, 1
9436268, 0, 0
9451864, 0, 0
9467452, 16, 4
9484104, 9, 1
9499708, 9, 0
9515300, 400, 1
9532980, 1089, 16
9552736, 361, 81
9571460, 64, 64
9589144, 16, 16
9606824, 324, 1
9624492, 169, 25
9643220, 169, 4
9660900, 144, 1
9678580, 36, 16
9696248, 36, 0
9712900, 289, 36
9731632, 25, 4
9748260, 25, 1
9764900, 9, 1
9780500, 169, 1
9798180, 100, 1
9815848, 1, 4
9831464, 4, 1
9847064, 25, 4
9863712, 0, 4
9879300, 49, 0
9895936, 289, 4
9913632, 289, 16
9932332, 0, 4
9947932, 49, 9
9964596, 9, 1
9980188, 1, 0
9995780, 0, 1
10011372, 0, 0
10028020, 49, 0
10045700, 196, 9
10064420, 16, 9
10082092, 81, 4
10099784, 225, 9
10118508, 121, 4
10137224, 81, 9
10154904, 81, 9
10172584, 121, 1
10191300, 0, 1
10207932, 9, 4
10224572, 9, 0
10241224, 1, 1
10257848, 0, 1
10274496, 9, 0
10291136, 25, 0
10308824, 100, 4
10327536, 0, 1
10344172, 16, 0
10361860, 9, 0
10378500, 9, 0
10395140, 64, 1
10412820, 64, 16
10431544, 144, 9
10450260, 144, 9
10468984, 1, 1
10485620, 25, 0
10503296, 9, 0
10519952, 36, 1
10537612, 25, 4
10555296, 1, 1
10571940, 0, 0
10588588, 4, 1
10605212, 0, 1
10621856, 1, 1
10638512, 64, 1
10656180, 81, 1
10673860, 1, 0
10690484, 4, 0
10707140, 25, 4
10724820, 49, 1
10742496, 9, 0
10759136, 4, 0
10775788, 49, 1
10793448, 81, 9
10811140, 36, 1
10828828, 0, 0
10845468, 16, 0
10863140, 64, 9
10880820, 100, 4
10899548, 1, 1
10916192, 36, 1
10933856, 100, 9
10952580, 100, 16
10972348, 0, 1
10988976, 4, 0
11005620, 64, 4
11023292, 36, 4
11040980, 81, 0
11058664, 196, 9
11077376, 441, 16
11097140, 484, 16
11116900, 36, 9
11134572, 16, 0
11152256, 64, 1
11169940, 64, 0
11187624, 1, 0
11204260, 49, 9
11221932, 16, 0
11239628, 49, 0
11257300, 144, 16
11277052, 196, 16
11296820, 16, 4
11314496, 0, 0
11331136, 1, 0
11347776, 4, 1
11364428, 36, 1
11382100, 4, 0
11398740, 9, 0
11415380, 36, 0
11433060, 169, 9
11451776, 361, 25
11471532, 144, 16
11491292, 4, 0
11507944, 1, 0
11524576, 1, 0
11541220, 49, 0
11558896, 225, 4
11577616, 81, 16
11596328, 0, 0
11612972, 25, 0
11630660, 25, 1
11648340, 16, 4
11666012, 36, 1
11683688, 36, 0
11701380, 1, 0
11718016, 25, 0
11735692, 64, 1
11753376, 81, 4
11771068, 100, 4
11789784, 9, 4
11806420, 25, 4
11824092, 144, 4
11842832, 25, 4
11860496, 1, 0
11877132, 4, 0
11893788, 0, 0
11910420, 0, 1
11927064, 1, 0
11943688, 9, 0
11960348, 1, 4
11976980, 81, 0
11994660, 324, 1
12013384, 100, 9
12032108, 81, 1
12049784, 64, 4
12067464, 16, 1
12085144, 36, 4
12102832, 25, 1
12120488, 100, 0
12139220, 36, 9
12156892, 1, 0
12173540, 0, 0
12190176, 25, 0
12207856, 16, 1
12225548, 121, 1
12244260, 400, 16
12264020, 121, 16
12283776, 0, 0
12300424, 1, 0
12317056, 0, 1
12333700, 4, 1
12350340, 1, 1
12366980, 0, 0
12383620, 0, 1
12400252, 0, 0
12416904, 4, 1
12433544, 1, 0
12450180, 0, 1
12466820, 4, 0
12483468, 9, 0
12500116, 1, 1
12516740, 121, 1
12535448, 529, 9
12554176, 36, 25
12572908, 9, 1
12589544, 16, 1
12607224, 169, 25
12626984, 81, 1
12644668, 16, 1
12662344, 81, 1
12680020, 100, 1
12698736, 324, 16
12718504, 169, 25
12738264, 1, 4
12754892, 36, 0
12772576, 4, 0
12789216, 1, 0
12805860, 1, 0
12822492, 9, 0
12839144, 121, 1
12857856, 100, 1
12876584, 49, 4
12894260, 1, 1
12910900, 9, 4
12927532, 16, 1
12945224, 1, 1
12961864, 4, 1
12978516, 9, 4
12995132, 169, 0
13013852, 64, 9
13031544, 4, 9
13048184, 64, 9
13065856, 289, 1
13084572, 121, 1
13103304, 36, 0
13120976, 16, 4
13138652, 25, 9
13156336, 9, 1
13172988, 49, 0
13190664, 324, 4
13209380, 196, 16
13229144, 16, 4
13246820, 324, 4
13265544, 100, 4
13284256, 25, 0
13301948, 16, 1
13319620, 36, 1
13337296, 16, 0
13354976, 1, 0
13371628, 1, 0
13388260, 9, 4
13404900, 16, 0
13422576, 9, 1
13439228, 36, 1
13456896, 36, 4
13474584, 25, 1
13492272, 4, 1
13508908, 0, 1
13525548, 49, 4
13543220, 25, 0
13560908, 196, 36
13580656, 49, 16
13599384, 36, 1
13617056, 16, 1
13634740, 25, 1
13652408, 9, 0
13669060, 121, 1
13687772, 324, 4
13706500, 64, 4
13724184, 1, 0
13740816, 64, 1
13758500, 256, 25
13778260, 49, 16
13796980, 1, 0
13813628, 9, 1
13830268, 25, 1
13847940, 0, 0
13864572, 16, 1
13882260, 36, 0
13899940, 256, 1
13918664, 361, 25
13938420, 0, 1
13955056, 81, 9
13972748, 81, 1
13990428, 25, 1
14008092, 36, 1
14025788, 9, 1
14042420, 16, 1
14060092, 0, 1
14076732, 4, 1
14093380, 16, 9
14111060, 4, 0
14127696, 16, 4
14145380, 144, 0
14164108, 144, 9
14182828, 0, 1
14199464, 0, 1
14216092, 49, 4
14233784, 16, 9
14251456, 1, 0
14268104, 49, 0
14285776, 64, 0
14303464, 9, 0
14320104, 36, 1
14337776, 0, 1
14354416, 1, 1
14371060, 25, 0
14388736, 64, 4
14406424, 1, 1
14423068, 49, 4
14440740, 121, 4
14459460, 49, 4
14477136, 9, 4
14493784, 121, 9
14512512, 25, 4
14530176, 0, 0
14546816, 1, 0
14563460, 36, 1
14581136, 25, 0
14598812, 1, 0
14615460, 81, 1
14633148, 64, 9
14650820, 36, 1
14668492, 25, 16
14687220, 1, 1
14703860, 4, 1
14720500, 0, 1
14737132, 0, 0
14753772, 1, 0
14770420, 1, 0
14787048, 1, 0
14803688, 1, 9
14820328, 1, 0
14836976, 9, 0
14853620, 1, 4
14870252, 0, 0
14886896, 16, 0
14904576, 100, 9
14923308, 36, 4
14940984, 4, 1
14957624, 1, 1
14974260, 0, 1
14990892, 1, 1
15007528, 0, 0
15024180, 0, 0
15040828, 16, 1
15058500, 4, 1
15075148, 0, 0
15091792, 0, 1
15108432, 4, 1
15125064, 16, 1
15142740, 4, 1
15159384, 1, 0
15176028, 1, 1
15192660, 1, 0
15209296, 25, 0
15226976, 9, 4
15243616, 0, 1
15260256, 9, 0
15276900, 4, 1
15293540, 25, 0
15311228, 16, 4
15328896, 25, 0
15346580, 25, 4
15364264, 4, 0
15380912, 4, 0
15397544, 9, 1
15414176, 25, 1
15431860, 1, 0
15448492, 1, 0
15465140, 1, 0
15481764, 0, 4
15498416, 1, 0
15515056, 4, 1
15531688, 1, 0
15548324, 0, 0
15564976, 16, 0
15582652, 49, 1
15600332, 64, 4
15618008, 81, 9
15635700, 81, 9
15653368, 4, 0
15670012, 9, 0
15686644, 25, 0
15704336, 4, 1
15720976, 0, 0
15737612, 0, 0
15754268, 1, 4
15770900, 1, 1
15787544, 4, 9
15804172, 0, 4
15820828, 1, 0
15837464, 0, 1
15854108, 1, 0
15870732, 0, 1
15887388, 1, 0
15904016, 1, 0
15920664, 1, 0
15937300, 4, 1
15953936, 4, 0
15970576, 4, 0
15987216, 4, 0
16003848, 4, 0
16020500, 1, 0
16037152, 1, 1
16053776, 0, 0
16070412, 0, 0
16087056, 1, 0
16103700, 1, 4
16120344, 1, 9
16136972, 0, 1
16153624, 9, 1
16170260, 25, 4
16187948, 1, 0
16204572, 4, 0
16221220, 1, 0
16237856, 4, 0
16254500, 4, 0
16271136, 1, 0
16287780, 1, 1
16304428, 0, 1
16321056, 9, 0
16337696, 16, 0
16355376, 0, 0
16372020, 4, 1
16388648, 0, 0
16405292, 1, 1
16421948, 1, 0
16438588, 1, 1
16455212, 4, 0
16471852, 36, 4
16489544, 9, 1
16506176, 0, 0
16522812, 1, 0
16539452, 0, 0
16556108, 1, 0
16572748, 9, 1
16589380, 1, 0
16606024, 0, 1
16622668, 1, 0
16639300, 1, 0
16655932, 0, 0
16672580, 0, 1
16689216, 1, 0
16705864, 4, 1
16722488, 9, 0
16739136, 9, 0
16755784, 9, 1
16772424, 1, 1
16789056, 0, 0
16805692, 0, 1
16822352, 1, 0
16838980, 9, 0
16855608, 1, 0
16872248, 0, 0
16888896, 0, 0
16905540, 4, 0
16922168, 49, 0
16939856, 36, 1
16957544, 9, 1
16974188, 1, 0
16990816, 4, 0
17007460, 9, 0
17024100, 1, 0
17040740, 0, 0
17057380, 1, 0
17074008, 1, 0
17090660, 4, 0
17107296, 16, 0
17124972, 4, 1
17141612, 1, 0
17158260, 1, 0
17174900, 4, 0
17191544, 0, 1
17208184, 0, 1
17224816, 0, 0
17241460, 1, 0
17258088, 0, 0
17274732, 16, 0
17292428, 169, 4
17311140, 225, 4
17329860, 25, 1
17347532, 4, 0
17364180, 1, 1
17380812, 0, 0
17397460, 1, 0
17414084, 9, 0
17430752, 1, 0
17447368, 0, 0
17464012, 4, 0
17480652, 1, 0
17497308, 4, 0
17513940, 9, 0
17530572, 4, 0
17547208, 16, 0
17564912, 4, 1
17581544, 36, 1
17599216, 16, 1
17616884, 0, 0
17633540, 1, 0
17650180, 25, 0
17667860, 121, 0
17686580, 9, 4
17703216, 9, 0
17719852, 16, 0
17737540, 4, 0
17754188, 4, 1
17770820, 0, 1
17787452, 4, 1
17804092, 4, 1
17820740, 0, 4
17837376, 1, 0
17854012, 4, 0
17870652, 0, 0
17887300, 0, 0
17903940, 1, 1
17920580, 1, 0
17937204, 16, 0
17954904, 49, 0
17972584, 9, 1
17989212, 1, 0
18005852, 9, 0
18022500, 9, 0
18039140, 1, 0
18055772, 0, 0
18072412, 1, 0
18089056, 1, 0
18105700, 4, 0
18122340, 9, 1
18138980, 9, 0
18155616, 36, 0
18173296, 49, 1
18190972, 64, 4
18208656, 81, 1
18226340, 16, 1
18244012, 0, 0
18260652, 1, 4
18277296, 4, 0
18293944, 16, 1
18311616, 4, 0
18328252, 36, 1
18345928, 121, 1
18364660, 64, 4
18382344, 25, 0
18400024, 16, 9
18417712, 1, 1
18434340, 4, 0
18450984, 9, 1
18467612, 16, 0
18485308, 0, 0
18501936, 4, 0
18518572, 64, 0
18536264, 36, 9
18553940, 4, 0
18570580, 1, 4
18587216, 36, 9
18604896, 81, 9
18622584, 4, 1
18639220, 4, 1
18655864, 4, 1
18672500, 36, 0
18690180, 144, 1
18708900, 144, 9
18727612, 16, 9
18745288, 0, 0
18761948, 0, 0
18778580, 0, 1
18795216, 1, 0
18811856, 25, 0
18829544, 9, 0
18846168, 4, 0
18862812, 4, 0
18879444, 9, 0
18896100, 4, 0
18912732, 4, 0
18929368, 25, 0
18947040, 4, 0
18963708, 4, 1
18980340, 1, 0
18996968, 16, 4
19014640, 16, 0
19032348, 4, 0
19048984, 9, 0
19065616, 4, 0
19082260, 64, 0
19099940, 49, 4
19117612, 4, 0
19134260, 144, 9
19152984, 100, 16
19172740, 0, 4
19189380, 4, 0
19206020, 144, 9
19224748, 121, 16
19244500, 36, 4
19262176, 0, 4
19278812, 0, 0
19295460, 0, 1
19312092, 4, 1
19328732, 4, 0
19345376, 16, 0
19363064, 9, 1
19379688, 0, 0
19396336, 9, 1
19412960, 0, 0
19429620, 9, 0
19446264, 4, 0
19462896, 0, 0
19479536, 1, 1
19496180, 9, 4
19512812, 25, 1
19530496, 4, 0
19547132, 36, 0
19564820, 81, 4
19582512, 1, 4
19599132, 144, 0
19617860, 324, 4
19636584, 81, 9
19654252, 0, 0
19670896, 1, 0
19687540, 1, 0
19704180, 9, 0
19720820, 0, 4
19737460, 0, 4
19754108, 9, 1
19770744, 36, 0
19788420, 144, 1
19807132, 121, 0
19825864, 25, 1
19843540, 36, 4
19861220, 49, 121
19880988, 25, 169
19900748, 4, 49
19918412, 9, 256
19937132, 0, 49
19954824, 100, 0
19973540, 324, 4
19992260, 25, 64
20010968, 121, 1
20029708, 144, 81
20049456, 1, 0
20066104, 36, 49
20084820, 64, 36
20103548, 1, 0
20120180, 196, 0
20138896, 49, 0
20156596, 1, 1
20173232, 169, 0
20191936, 256, 1
20210644, 25, 0
20228340, 0, 4
20244976, 1, 0
20261612, 36, 0
20279296, 81, 9
20296976, 16, 9
20314664, 64, 9
20332336, 324, 16
20352104, 225, 4
20370820, 64, 0
20388496, 100, 0
20407216, 49, 4
20424900, 4, 9
20441528, 0, 144
20460252, 81, 36
20478976, 0, 1
20495620, 196, 1
20514348, 49, 9
20532020, 81, 0
20549704, 196, 4
20568424, 49, 1
20586096, 9, 0
20602748, 121, 0
20621460, 121, 0
20640192, 16, 1
20657856, 0, 16
20675524, 49, 16
20694264, 36, 1
20711932, 25, 0
20729616, 100, 1
20748340, 1, 0
20764984, 9, 9
20781624, 36, 4
20799300, 81, 25
20818028, 100, 1
20836740, 256, 9
20855460, 256, 9
20874168, 121, 4
20892896, 9, 0
20909540, 49, 4
20927220, 289, 0
20945948, 225, 9
20964672, 16, 9
20982332, 64, 4
21000008, 4, 64
21017700, 4, 36
21035384, 1, 9
21052012, 9, 9
21068656, 100, 16
21088420, 81, 1
21106092, 0, 4
21122736, 1, 1
21139372, 49, 25
21158100, 49, 4
21175776, 36, 36
21194500, 16, 81
21213224, 36, 1
21230904, 0, 4
21247528, 196, 16
21267288, 100, 36
21287064, 1, 1
21303708, 16, 1
21321368, 361, 0
21340084, 225, 1
21358820, 0, 1
21375460, 9, 9
21392100, 4, 25
21409764, 4, 0
21426420, 36, 0
21444096, 25, 9
21461780, 25, 0
21479464, 9, 0
21496100, 0, 0
21512736, 4, 9
21529372, 36, 9
21547064, 100, 25
21566828, 16, 49
21585544, 49, 16
21604256, 25, 0
21621940, 144, 0
21640660, 361, 4
21659376, 81, 0
21677048, 0, 0
21693704, 64, 4
21711388, 100, 25
21731140, 9, 100
21749860, 169, 9
21768580, 441, 4
21787296, 225, 1
21806008, 169, 1
21824748, 16, 1
21842412, 36, 4
21860092, 169, 9
21878824, 196, 9
21897548, 49, 25
21916264, 0, 9
21932900, 16, 1
21950580, 64, 0
21968260, 64, 1
21985932, 36, 1
22003612, 1, 0
22020256, 0, 0
22036900, 1, 0
22053536, 81, 0
22071216, 16, 0
22088904, 121, 4
22107620, 121, 9
22126344, 25, 1
22144016, 1, 16
22161696, 16, 16
22180416, 36, 16
22199132, 4, 4
22215780, 49, 4
22233460, 25, 1
22251132, 1, 0
22267776, 49, 1
22285460, 121, 4
22304172, 49, 16
22322896, 16, 1
22340576, 9, 4
22357220, 64, 1
22374900, 49, 1
22392580, 1, 1
22409212, 36, 16
22427948, 49, 4
22445608, 0, 4
22462252, 0, 1
22478900, 1, 1
22495536, 0, 16
22513212, 25, 0
22530892, 100, 4
22549616, 36, 0
22567304, 0, 0
22583940, 81, 0
22601620, 144, 1
22620352, 36, 4
22638020, 16, 4
22655692, 0, 4
22672324, 9, 0
22688984, 25, 0
22706664, 64, 1
22724332, 9, 0
22740968, 16, 0
22758668, 1, 9
22775304, 100, 1
22794024, 25, 1
22811708, 0, 9
22828348, 36, 4
22846016, 36, 1
22863688, 0, 4
22880344, 64, 0
22898028, 81, 0
22915700, 9, 0
22932344, 49, 16
22951068, 49, 16
22969776, 16, 16
22988492, 49, 16
23007212, 49, 0
23024904, 1, 0
23041536, 81, 1
23059220, 289, 0
23077940, 169, 9
23096664, 1, 9
23113304, 9, 1
23129944, 1, 1
23146576, 4, 0
23163220, 16, 4
23180892, 0, 4
23197540, 9, 1
23214184, 1, 0
23230828, 4, 4
23247464, 0, 4
23264100, 4, 0
23280740, 4, 1
23297384, 100, 9
23316096, 100, 4
23334820, 16, 4
23352500, 81, 4
23370168, 49, 4
23387856, 0, 0
23404484, 4, 4
23421132, 1, 0
23437780, 4, 0
23454420, 9, 0
23471044, 4, 1
23487696, 0, 25
23505364, 4, 81
23523052, 81, 49
23541784, 36, 25
23560512, 16, 1
23578172, 100, 16
23597944, 16, 4
23615620, 9, 9
23632264, 9, 0
23648900, 9, 4
23665540, 49, 0
23683220, 4, 0
23699872, 49, 1
23717544, 36, 1
23735220, 144, 1
23753948, 16, 16
23772664, 169, 1
23791368, 289, 36
23811140, 36, 4
23828820, 0, 1
23845448, 16, 0
23863136, 36, 1
23880828, 1, 1
23897460, 16, 0
23915132, 9, 0
23931784, 9, 1
23948416, 0, 0
23965068, 4, 1
23981700, 1, 1
23998344, 9, 1
24014980, 25, 0
24032660, 49, 0
24050336, 4, 4
24066972, 1, 9
24083624, 0, 1
24100264, 36, 1
24117940, 64, 4
24135612, 1, 0
24152268, 36, 9
24169944, 1, 4
24186584, 100, 1
24205284, 121, 9
24224024, 49, 1
24241704, 4, 1
24258340, 121, 0
24277072, 36, 9
24294748, 9, 0
24311368, 25, 4
24329060, 0, 0
24345700, 0, 1
24362336, 36, 0
24380012, 81, 4
24397696, 25, 4
24415380, 25, 0
24433060, 25, 1
24450744, 9, 0
24467376, 144, 1
24486100, 256, 4
24504820, 196, 9
24523536, 121, 9
24542264, 16, 4
24559936, 36, 0
24577608, 169, 4
24596344, 144, 9
24615064, 4, 1
24631708, 9, 0
24648348, 16, 1
24666016, 121, 9
24684740, 169, 9
24703456, 81, 1
24721136, 16, 1
24738828, 0, 4
24755464, 4, 1
24772092, 0, 0
24788728, 25, 1
24806416, 25, 0
24824100, 1, 1
24840740, 1, 4
24857384, 16, 1
24875072, 49, 1
24892736, 0, 9
24909384, 25, 1
24927056, 1, 0
24943696, 4, 0
24960336, 16, 1
24978020, 0, 1
24994660, 4, 0
25011296, 36, 0
25028992, 9, 1
25045620, 4, 0
25062264, 1, 4
25078904, 25, 0
25096580, 4, 0
25113208, 4, 0
25129852, 16, 0
25147544, 1, 4
25164184, 16, 4
25181852, 100, 0
25200584, 121, 1
25219300, 121, 9
25238008, 4, 9
25254648, 25, 0
25272340, 0, 0
25288980, 81, 1
25306660, 36, 4
25324340, 4, 0
25340988, 4, 1
25357620, 1, 4
25374252, 0, 4
25390888, 0, 0
25407536, 1, 0
25424192, 1, 1
25440820, 4, 1
25457456, 36, 1
25475140, 25, 1
25492824, 0, 0
25509456, 4, 4
25526104, 49, 9
25543780, 36, 1
25561456, 36, 25
25580180, 16, 0
25597860, 16, 1
25615548, 196, 1
25634256, 289, 1
25652976, 81, 0
25670648, 16, 0
25688340, 16, 0
25706028, 1, 1
25722652, 36, 0
25740344, 64, 1
25758024, 64, 0
25775704, 36, 1
25793376, 1, 0
25810016, 49, 0
25827700, 25, 0
25845384, 1, 4
25862012, 0, 4
25878660, 49, 0
25896344, 64, 1
25914020, 0, 4
25930652, 9, 0
25947296, 0, 0
25963948, 36, 1
25981620, 169, 25
26001364, 49, 25
26020104, 16, 0
26037792, 144, 9
26056492, 81, 4
26074184, 16, 1
26091860, 36, 0
26109536, 81, 1
26127212, 49, 9
26144904, 25, 1
26162584, 4, 0
26179212, 0, 1
26195860, 1, 0
26212504, 4, 1
26229140, 9, 1
26245772, 4, 4
26262412, 1, 1
26279056, 25, 0
26296748, 49, 1
26314416, 4, 0
26331052, 9, 0
26347712, 4, 4
26364344, 1, 4
26380984, 0, 1
26397616, 25, 4
26415312, 25, 0
26432984, 1, 1
26449624, 9, 0
26466248, 81, 0
26483940, 49, 9
26501624, 1, 4
26518260, 64, 1
26535924, 196, 1
26554664, 121, 1
26573380, 9, 4
26590008, 64, 0
26607700, 49, 1
26625384, 81, 1
26643068, 1, 0
26659696, 64, 1
26677384, 81, 1
26695060, 100, 0
26713772, 25, 1
26731452, 49, 0
26749148, 121, 1
26767860, 49, 1
26785540, 100, 0
26804264, 25, 4
26821944, 16, 1
26839620, 16, 0
26857304, 49, 4
26874980, 25, 9
26892672, 196, 1
26911372, 100, 4
26930100, 36, 9
26947792, 4, 1
26964424, 49, 25
26983136, 49, 49
27001844, 9, 9
27018504, 4, 1
27035136, 16, 0
27052820, 49, 0
27070500, 144, 1
27089224, 169, 1
27107928, 100, 9
27126656, 100, 4
27145384, 64, 1
27163060, 1, 4
27179704, 25, 4
27197384, 9, 16
27215064, 9, 25
27232740, 4, 16
27250420, 81, 0
27268088, 100, 4
27286820, 9, 1
27303472, 36, 0
27321140, 25, 0
27338820, 16, 1
27356500, 16, 4
27374180, 0, 4
27390816, 81, 0
27408508, 121, 1
27427236, 1, 1
27443852, 4, 0
27460500, 64, 1
27478180, 361, 1
27496896, 196, 0
27515620, 169, 1
27534328, 324, 4
27553056, 225, 16
27572812, 49, 16
27591544, 0, 9
27608188, 100, 0
27626904, 16, 9
27644580, 9, 1
27661212, 0, 1
27677864, 1, 0
27694508, 16, 0
27712184, 100, 4
27730892, 16, 9
27748588, 225, 9
27767288, 36, 16
27786012, 16, 0
27803704, 0, 1
27820340, 16, 0
27838008, 441, 0
27856732, 121, 16
27876512, 1, 4
27893144, 16, 4
27910820, 9, 16
27928484, 16, 4
27946180, 49, 16
27964900, 4, 0
27981536, 361, 4
28000252, 256, 25
28020020, 144, 36
28039776, 900, 4
28058500, 400, 25
28078256, 36, 25
28096980, 4, 16
28114656, 81, 9
28132328, 256, 4
28151060, 64, 9
28168748, 0, 0
28185384, 4, 0
28202028, 81, 1
28219700, 144, 9
28238416, 9, 4
28255052, 16, 1
28272744, 9, 9
28289384, 25, 4
28307056, 64, 0
28324740, 1, 0
28341384, 144, 4
28360112, 169, 4
28378824, 0, 1
28395444, 484, 0
28414180, 625, 4
28432900, 1, 49
28450572, 36, 1
28468260, 16, 4
28485928, 256, 0
28504656, 289, 25
28524428, 16, 4
28542100, 36, 0
28559776, 16, 9
28577452, 1, 1
28594092, 16, 4
28611788, 100, 0
28630504, 1, 0
28647128, 64, 1
28664808, 81, 1
28682512, 256, 1
28701228, 81, 16
28719936, 1, 4
28736580, 16, 4
28754268, 16, 4
28771940, 16, 1
28789612, 144, 0
28808336, 400, 16
28828092, 36, 25
28846820, 1, 1
28863456, 25, 0
28881144, 9, 9
28897788, 0, 0
28914420, 49, 4
28932104, 49, 4
28949776, 0, 4
28966436, 0, 4
28983060, 25, 0
29000740, 36, 1
29018428, 9, 0
29035048, 0, 4
29051696, 1, 0
29068336, 64, 0
29086020, 4, 4
29102664, 9, 0
29119288, 9, 0
29135940, 9, 1
29152584, 9, 1
29169208, 144, 16
29188972, 169, 16
29208744, 81, 9
29226420, 1, 4
29243064, 100, 1
29261768, 64, 25
29280504, 36, 9
29298184, 9, 4
29314812, 16, 1
29332504, 64, 9
29350184, 9, 16
29367852, 81, 4
29385536, 289, 1
29404264, 196, 9
29422980, 100, 4
29441688, 81, 0
29459368, 1, 0
29476032, 16, 1
29493700, 4, 4
29510332, 25, 0
29528004, 0, 0
29544672, 49, 1
29562332, 121, 1
29581052, 169, 9
29599784, 100, 9
29618500, 25, 1
29636172, 25, 1
29653848, 25, 4
29671544, 4, 1
29688184, 16, 0
29705860, 1, 1
29722504, 36, 0
29740184, 49, 1
29757864, 25, 9
29775544, 196, 4
29794252, 361, 1
29812976, 49, 0
29830648, 9, 1
29847292, 16, 4
29864980, 4, 1
29881620, 36, 16
29900340, 324, 36
29920100, 169, 9
29938824, 36, 4
29956500, 400, 49
29976260, 144, 36
29996012, 4, 0
30012656, 16, 0
30030332, 9, 100
30049060, 36, 144
30068832, 25, 1
30086516, 256, 4
30105228, 0, 36
30122888, 196, 1
30141620, 169, 16
30161380, 64, 4
30179052, 36, 9
30196728, 36, 1
30214424, 9, 1
30231068, 36, 1
30248732, 144, 0
30267460, 36, 1
30285140, 16, 1
30302804, 16, 0
30320496, 4, 1
30337136, 0, 4
30353788, 4, 1
30370420, 4, 0
30387060, 100, 1
30405780, 121, 36
30425536, 25, 9
30443224, 49, 0
30460896, 0, 4
30477536, 100, 0
30496252, 169, 0
30514976, 64, 0
30532668, 9, 0
30549304, 1, 0
30565940, 36, 1
30583612, 25, 4
30601300, 0, 9
30617940, 49, 1
30635616, 16, 0
30653304, 0, 0
30669948, 4, 0
30686576, 16, 0
30704256, 4, 4
30720900, 36, 16
30739620, 9, 1
30756268, 4, 4
30772900, 16, 0
30790572, 4, 0
30807220, 9, 4
30823860, 4, 0
30840500, 9, 0
30857148, 196, 1
30875864, 100, 25
30895620, 1, 9
30912256, 1, 0
30928900, 4, 0
30945548, 16, 0
30963228, 4, 4
30979864, 0, 9
30996500, 16, 0
31014180, 16, 0
31031860, 25, 0
31049544, 64, 1
31067228, 25, 0
31084900, 9, 0
31101536, 9, 4
31118176, 64, 4
31135864, 100, 1
31154580, 1, 0
31171220, 16, 4
31188896, 64, 0
31206596, 144, 9
31225292, 49, 4
31242984, 4, 1
31259604, 4, 0
31276268, 0, 1
31292892, 36, 1
31310576, 100, 1
31329304, 121, 4
31348020, 49, 9
31365708, 1, 0
31382340, 225, 9
31401060, 225, 25
31420824, 16, 4
31438492, 289, 4
31457212, 144, 9
31475956, 16, 1
31493624, 36, 0
31511300, 100, 16
31531060, 81, 16
31549780, 36, 4
31567452, 4, 4
31584096, 25, 1
31601792, 1, 0
31618420, 0, 1
31635052, 0, 1
31651708, 16, 1
31669380, 81, 0
31687068, 4, 0
31703708, 1, 0
31720340, 36, 9
31738028, 1, 16
31755696, 9, 0
31772336, 1, 0
31788972, 1, 1
31805620, 4, 1
31822256, 16, 0
31839932, 49, 0
31857620, 9, 9
31874272, 1, 1
31890888, 0, 0
31907528, 0, 0
31924164, 1, 0
31940824, 81, 0
31958492, 361, 9
31977212, 100, 25
31996980, 0, 1
32013616, 9, 1
32030256, 9, 1
32046908, 1, 1
32063552, 9, 0
32080188, 9, 1
32096816, 0, 0
32113464, 1, 1
32130104, 25, 1
32147796, 1, 0
32164428, 36, 1
32182100, 1, 1
32198740, 0, 1
32215380, 0, 1
32232012, 1, 4
32248660, 1, 9
32265304, 81, 0
32282988, 289, 1
32301700, 121, 4
32320416, 1, 0
32337060, 36, 9
32354740, 81, 4
32372416, 36, 9
32390096, 64, 9
32407780, 144, 9
32426488, 25, 9
32444168, 0, 0
32460824, 9, 0
32477456, 9, 0
32494104, 9, 1
32510732, 4, 0
32527388, 1, 0
32544016, 4, 0
32560664, 1, 1
32577292, 0, 1
32593940, 9, 0
32610580, 1, 0
32627224, 16, 0
32644900, 25, 4
32662584, 1, 4
32679220, 100, 0
32697932, 196, 1
32716664, 64, 9
32734344, 9, 1
32750980, 25, 0
32768656, 100, 4
32787376, 256, 9
32806100, 169, 9
32824824, 16, 1
32842496, 16, 1
32860184, 25, 16
32878908, 169, 9
32897612, 256, 4
32916348, 0, 1
32932976, 100, 16
32952744, 169, 4
32971464, 121, 4
32990172, 144, 16
33009936, 400, 16
33029688, 81, 9
33047376, 36, 1
33065072, 225, 4
33083788, 81, 4
33101464, 36, 1
33119136, 49, 1
33136824, 1, 0
33153460, 1, 0
33170100, 0, 1
33186728, 36, 0
33204432, 256, 1
33223132, 144, 0
33241864, 0, 1
33258504, 1, 4
33275148, 0, 9
33291780, 25, 0
33309452, 9, 0
33326112, 324, 9
33344824, 25, 1
33362504, 9, 4
33379132, 25, 0
33396816, 25, 16
33415540, 1, 9
33432176, 1, 16
33449852, 16, 64
33468576, 25, 0
33486256, 256, 64
33506020, 625, 16
33525784, 256, 1
33544504, 100, 1
33563212, 25, 16
33581928, 1, 4
33598588, 36, 0
33616260, 100, 1
33634972, 289, 0
33653692, 529, 36
33673460, 196, 25
33693232, 1, 4
33709848, 81, 0
33727540, 49, 4
33745228, 9, 4
33761860, 4, 0
33778496, 121, 0
33797220, 25, 1
33814912, 4, 1
33831540, 4, 0
33848180, 0, 4
33864816, 25, 0
33882512, 0, 0
33899136, 36, 0
33916816, 121, 0
33935540, 324, 9
33954260, 0, 0
33970892, 36, 9
33988576, 4, 0
34005220, 9, 4
34021860, 16, 0
34039540, 169, 9
34058260, 100, 25
34078024, 25, 1
34095700, 4, 0
34112348, 49, 1
34130024, 9, 4
34146664, 289, 1
34165376, 1225, 49
34186176, 361, 81
34205948, 25, 1
34223620, 9, 4
34240268, 64, 1
34257936, 256, 16
34277700, 196, 9
34296416, 81, 1
34314092, 81, 25
34332820, 121, 25
34352576, 169, 0
34371292, 144, 4
34390020, 9, 9
34406668, 0, 4
34423300, 4, 4
34439932, 36, 0
34457628, 0, 0
34474260, 25, 1
34491940, 25, 1
34509620, 9, 0
34526260, 0, 1
34542900, 1, 0
34559540, 4, 1
34576176, 25, 0
34593864, 25, 0
34611540, 0, 0
34628180, 1, 4
34644812, 16, 0
34662500, 49, 1
34680184, 100, 1
34698892, 16, 1
34716572, 1, 0
34733224, 0, 0
34749860, 0, 0
34766496, 169, 0
34785204, 676, 16
34804984, 289, 36
34824748, 64, 1
34842412, 9, 1
34859064, 4, 1
34875704, 36, 4
34893384, 100, 1
34912108, 225, 1
34930824, 100, 4
34949548, 0, 0
34966184, 36, 9
34983848, 36, 4
35001540, 16, 4
35019220, 4, 4
35035852, 16, 0
35053532, 36, 0
35071232, 9, 1
35087860, 100, 0
35106572, 256, 9
35125308, 81, 9
35142996, 49, 1
35160660, 9, 1
35177292, 4, 1
35193948, 1, 1
35210576, 9, 0
35227212, 16, 0
35244900, 4, 0
35261544, 9, 0
35278180, 49, 1
35295856, 9, 4
35312492, 1, 0
35329144, 4, 0
35345776, 0, 0
35362412, 9, 0
35379064, 121, 4
35397792, 64, 9
35415468, 1, 0
35432088, 16, 0
35449768, 49, 0
35467464, 81, 4
35485144, 16, 4
35502820, 1, 0
35519444, 0, 0
35536112, 81, 1
35553780, 169, 9
35572500, 9, 1
35589156, 1, 0
35605792, 36, 4
35623472, 16, 1
35641144, 0, 0
35657776, 0, 0
35674420, 16, 0
35692088, 9, 0
35708736, 1, 0
35725384, 9, 0
35742028, 1, 0
35758648, 0, 0
35775292, 4, 0
35791940, 4, 0
35808576, 0, 0
35825208, 16, 0
35842900, 25, 1
35860584, 49, 1
35878260, 25, 4
35895948, 4, 1
35912588, 4, 0
35929220, 25, 0
35946900, 25, 0
35964580, 16, 4
35982252, 49, 0
35999940, 4, 1
36016584, 4, 0
36033216, 64, 1
36050884, 81, 0
36068580, 0, 0
36085212, 0, 4
36101860, 1, 4
36118484, 1, 0
36135140, 25, 0
36152812, 25, 1
36170496, 1, 1
36187128, 25, 1
36204824, 4, 4
36221468, 0, 0
36238104, 4, 0
36254740, 25, 0
36272420, 4, 0
36289060, 1, 1
36305700, 16, 0
36323380, 0, 0
36340024, 0, 4
36356660, 4, 0
36373292, 4, 1
36389936, 0, 0
36406580, 64, 1
36424260, 100, 4
36442976, 1, 9
36459624, 1, 0
36476260, 36, 0
36493940, 64, 0
36511624, 25, 4
36529300, 4, 0
36545936, 4, 0
36562572, 16, 1
36580256, 1, 4
36596904, 0, 0
36613544, 0, 1
36630172, 1, 0
36646808, 0, 0
36663464, 1, 1
36680100, 36, 0
36697784, 49, 4
36715452, 4, 0
36732108, 0, 0
36748740, 100, 1
36767460, 289, 16
36787220, 64, 4
36804908, 1, 0
36821548, 0, 0
36838168, 4, 0
36854820, 9, 1
36871464, 9, 0
36888108, 1, 0
36904744, 1, 0
36921388, 81, 1
36939072, 25, 1
36956736, 4, 0
36973376, 1, 0
36990024, 4, 0
37006664, 4, 0
37023292, 9, 0
37039940, 16, 0
37057620, 16, 1
37075304, 4, 4
37091940, 9, 0
37108580, 9, 1
37125220, 0, 0
37141860, 1, 1
37158488, 0, 0
37175140, 1, 0
37191776, 0, 0
37208416, 0, 0
37225052, 0, 1
37241704, 1, 0
37258336, 25, 1
37276020, 49, 1
37293688, 36, 0
37311372, 25, 1
37329064, 4, 1
37345704, 4, 1
37362332, 4, 0
37378972, 0, 0
37395620, 16, 1
37413292, 36, 4
37430980, 4, 1
37447612, 4, 0
37464268, 25, 9
37481936, 1, 4
37498576, 9, 1
37515220, 36, 9
37532904, 9, 4
37549544, 1, 0
37566176, 0, 0
37582808, 9, 0
37599468, 36, 1
37617136, 0, 0
37633780, 9, 1
37650412, 1, 0
37667060, 1, 1
37683696, 1, 0
37700340, 9, 1
37716976, 36, 4
37734668, 0, 9
37751304, 4, 0
37767940, 25, 0
37785624, 64, 9
37803308, 16, 0
37820972, 1, 0
37837620, 1, 0
37854264, 1, 1
37870912, 1, 0
37887532, 0, 0
37904180, 4, 1
37920820, 4, 1
37937456, 1, 0
37954092, 1, 0
37970740, 36, 0
37988420, 49, 1
38006096, 0, 0
38022736, 0, 0
38039388, 9, 1
38056016, 0, 0
38072656, 0, 0
38089292, 4, 0
38105940, 9, 1
38122584, 49, 1
38140276, 36, 1
38157948, 16, 1
38175612, 36, 0
38193304, 16, 0
38210980, 25, 4
38228660, 16, 4
38246332, 9, 0
38262980, 36, 0
38280648, 9, 0
38297292, 1, 0
38313932, 64, 0
38331620, 64, 1
38349288, 25, 0
38366968, 16, 0
38384660, 16, 0
38402348, 64, 4
38420016, 169, 4
38438744, 49, 1
38456432, 1, 1
38473060, 9, 0
38489700, 0, 0
38506332, 4, 0
38522980, 4, 0
38539620, 0, 0
38556248, 25, 0
38573924, 16, 0
38591620, 0, 1
38608256, 1, 0
38624900, 16, 0
38642576, 49, 4
38660264, 49, 9
38677932, 9, 4
38694576, 1, 1
38711208, 16, 0
38728916, 25, 1
38746576, 0, 1
38763228, 0, 1
38779856, 0, 0
38796508, 1, 0
38813140, 1, 0
38829780, 1, 0
38846408, 16, 1
38864108, 1, 1
38880740, 25, 0
38898424, 81, 1
38916084, 9, 0
38932740, 1, 1
38949372, 0, 1
38966008, 0, 0
38982644, 1, 0
38999304, 9, 1
39015936, 36, 1
39033624, 49, 1
39051304, 25, 4
39068988, 1, 1
39085612, 0, 0
39102252, 0, 1
39118896, 4, 0
39135540, 4, 0
39152176, 0, 1
39168816, 25, 0
39186496, 4, 0
39203144, 4, 0
39219780, 1, 0
39236420, 1, 0
39253064, 1, 1
39269700, 0, 0
39286340, 1, 1
39302972, 1, 0
39319620, 25, 0
39337304, 36, 0
39354984, 36, 4
39372664, 0, 1
39389300, 9, 0
39405940, 0, 0
39422576, 4, 0
39439216, 0, 0
39455860, 9, 0
39472500, 0, 0
39489132, 1, 1
39505772, 0, 0
39522428, 25, 1
39540104, 64, 1
39557780, 9, 4
39574420, 16, 1
39592100, 25, 1
39609768, 1, 0
39626412, 4, 0
39643056, 4, 0
39659704, 9, 0
39676340, 0, 1
39692972, 0, 0
39709616, 1, 1
39726260, 4, 0
39742892, 25, 1
39760572, 16, 0
39778252, 0, 0
39794900, 4, 0
39811536, 25, 0
39829228, 25, 4
39846896, 0, 1
39863540, 25, 0
39881216, 25, 0
39898892, 0, 0
39915544, 4, 0
39932184, 16, 0
39949872, 4, 1
39966496, 49, 0
39984180, 36, 1
40001860, 16, 1
40019540, 1, 1
40036180, 16, 1
40053872, 4, 1
40070504, 25, 4
40088180, 0, 1
40104812, 9, 1
40121460, 16, 0
40139140, 1, 0
40155772, 0, 0
40172412, 4, 1
40189072, 1, 0
40205712, 9, 0
40222332, 9, 1
40238980, 4, 1
40255620, 16, 4
40273304, 16, 1
40290980, 1, 0
40307612, 4, 1
40324260, 36, 1
40341932, 25, 4
40359628, 0, 1
40376252, 64, 1
40393944, 36, 1
40411620, 1, 1
40428252, 0, 1
40444896, 1, 0
40461536, 0, 0
40478180, 4, 0
40494812, 0, 1
40511452, 0, 0
40528100, 0, 1
40544732, 0, 0
40561384, 9, 1
40578008, 36, 1
40595700, 36, 0
40613384, 4, 1
40630020, 0, 0
40646648, 0, 1
40663300, 0, 0
40679936, 4, 0
40696580, 1, 1
40713220, 0, 0
40729860, 0, 0
40746488, 0, 0
40763136, 4, 1
40779764, 0, 0
40796420, 16, 1
40814108, 4, 0
40830732, 1, 0
40847380, 0, 0
40864020, 4, 0
40880656, 25, 0
40898332, 9, 1
40914988, 0, 0
40931620, 0, 0
40948256, 0, 0
40964892, 0, 0
40981540, 1, 0
40998180, 9, 0
41014820, 9, 1
41031452, 16, 0
41049136, 36, 0
41066824, 16, 1
41084492, 0, 0
41101128, 4, 0
41117780, 4, 0
41134424, 16, 0
41152108, 36, 4
41169776, 9, 1
41186420, 4, 0
41203064, 25, 1
41220744, 1, 0
41237380, 36, 4
41255068, 9, 1
41271700, 0, 0
41288336, 1, 0
41304980, 1, 1
41321620, 0, 1
41338260, 25, 0
41355940, 16, 1
41373612, 1, 0
41390260, 25, 4
41407932, 25, 1
41425616, 0, 1
41442256, 4, 0
41458900, 0, 0
41475536, 0, 1
41492176, 0, 0
41508808, 0, 1
41525448, 0, 0
41542092, 0, 0
41558744, 0, 0
41575368, 0, 0
41592016, 0, 0
41608648, 0, 0
41625292, 0, 0
41641920, 9, 0
41658580, 25, 1
41676260, 0, 0
41692888, 16, 0
41710564, 36, 4
41728260, 25, 4
41745940, 1, 4
41762568, 0, 0
41779220, 9, 1
41795860, 9, 1
41812508, 4, 0
41829140, 121, 4
41847864, 49, 4
41865548, 4, 1
41882168, 16, 0
41899852, 25, 4
41917536, 16, 0
41935216, 9, 0
41951852, 4, 4
41968492, 9, 1
41985140, 9, 0
42001776, 0, 0
42018412, 0, 0
42035060, 4, 0
42051708, 4, 1
42068340, 0, 0
42084972, 0, 1
42101616, 16, 0
42119304, 64, 1
42136980, 36, 4
42154652, 0, 0
42171292, 1, 0
42187944, 4, 1
42204580, 0, 0
42221220, 16, 0
42238884, 36, 1
42256584, 4, 1
42273212, 1, 0
42289852, 4, 1
42306496, 1, 1
42323152, 16, 0
42340820, 25, 1
42358496, 9, 4
42375128, 9, 1
42391780, 0, 0
42408424, 0, 4
42425048, 0, 0
42441688, 16, 1
42459380, 25, 0
42477060, 4, 1
42493704, 1, 1
42510344, 9, 1
42526988, 1, 1
42543624, 1, 0
42560252, 0, 1
42576900, 1, 0
42593540, 1, 1
42610172, 4, 0
42626820, 1, 0
42643452, 0, 0
42660096, 0, 0
42676740, 1, 0
42693368, 16, 0
42711056, 16, 0
42728736, 4, 0
42745384, 4, 0
42762016, 9, 0
42778660, 25, 0
42796348, 4, 1
42812976, 4, 0
42829624, 25, 1
42847308, 1, 0
42863940, 1, 0
42880568, 0, 0
42897212, 9, 0
42913856, 0, 0
42930508, 36, 0
42948172, 9, 4
42964820, 1, 0
42981468, 1, 0
42998104, 1, 1
43014744, 9, 0
43031384, 1, 1
43048016, 4, 0
43064660, 9, 0
43081296, 1, 0
43097928, 1, 0
43114580, 0, 0
43131224, 1, 1
43147852, 9, 0
43164504, 0, 0
43181148, 0, 0
43197780, 4, 0
43214412, 9, 0
43231064, 0, 1
43247708, 0, 0
43264348, 1, 0
43280976, 16, 1
43298652, 0, 0
43315308, 9, 0
43331948, 1, 0
43348572, 0, 0
43365208, 0, 0
43381860, 1, 0
43398500, 4, 0
43415132, 4, 0
43431780, 1, 0
43448416, 1, 1
43465060, 0, 0
43481704, 16, 0
43499384, 81, 1
43517072, 1, 1
43533708, 25, 0
43551380, 1, 0
43568020, 0, 0
43584660, 1, 0
43601300, 4, 0
43617936, 81, 0
43635616, 289, 1
43654336, 49, 4
43672016, 1, 0
43688660, 1, 0
43705292, 0, 0
43721944, 0, 0
43738576, 9, 0
43755208, 4, 0
43771844, 0, 0
43788504, 1, 0
43805132, 9, 1
43821776, 25, 1
43839456, 16, 1
43857140, 0, 0
43873772, 16, 1
43891452, 16, 1
43909140, 1, 0
43925784, 0, 1
43942420, 36, 1
43960092, 16, 1
43977788, 1, 1
43994420, 16, 0
44012092, 16, 0
44029780, 16, 0
44047456, 25, 0
44065148, 4, 0
44081772, 0, 0
44098412, 1, 0
44115060, 0, 0
44131704, 0, 1
44148336, 0, 0
44164980, 1, 0
44181620, 49, 0
44199304, 49, 4
44216984, 1, 1
44233620, 16, 0
44251304, 81, 1
44268972, 36, 4
44286660, 9, 0
44303296, 1, 0
44319940, 9, 0
44336576, 49, 1
44354252, 9, 1
44370900, 0, 0
44387536, 1, 0
44404168, 16, 0
44421852, 16, 4
44439532, 36, 1
44457228, 49, 1
44474912, 1, 1
44491540, 36, 1
44509224, 0, 0
44525864, 4, 0
44542500, 64, 1
44560168, 9, 4
44576820, 9, 0
44593464, 49, 4
44611140, 9, 0
44627784, 4, 0
44644420, 16, 4
44662096, 1, 0
44678748, 25, 1
44696424, 16, 0
44714108, 49, 1
44731784, 16, 4
44749452, 9, 1
44766088, 0, 0
44782744, 16, 0
44800420, 0, 0
44817056, 0, 0
44833696, 25, 1
44851384, 9, 1
44868016, 4, 0
44884648, 4, 1
44901288, 16, 0
44918984, 64, 4
44936656, 49, 0
44954344, 64, 1
44972016, 9, 1
44988660, 0, 0
45005296, 9, 0
45021932, 4, 0
45038572, 49, 1
45056264, 9, 1
45072892, 1, 0
45089544, 16, 0
45107216, 4, 0
45123856, 4, 0
45140500, 0, 0
45157140, 9, 0
45173780, 0, 0
45190420, 25, 1
45208100, 4, 1
45224732, 4, 0
45241380, 25, 1
45259056, 64, 0
45276732, 16, 1
45294408, 0, 0
45311060, 4, 1
45327708, 9, 1
45344328, 16, 4
45362020, 1, 0
45378660, 0, 1
45395300, 4, 0
45411936, 36, 0
45429616, 36, 4
45447304, 0, 1
45463944, 1, 0
45480568, 4, 0
45497216, 0, 1
45513860, 49, 1
45531540, 49, 9
45549224, 4, 1
45565848, 0, 0
45582496, 1, 0
45599140, 0, 0
45615780, 0, 0
45632408, 4, 0
45649056, 4, 0
45665700, 9, 1
45682344, 0, 1
45698976, 1, 1
45715620, 0, 1
45732256, 4, 0
45748892, 25, 0
45766564, 16, 1
45784264, 0, 1
45800904, 0, 0
45817544, 1, 1
45834168, 4, 1
45850816, 1, 0
45867448, 0, 0
45884100, 1, 0
45900736, 4, 1
45917380, 4, 0
45934012, 4, 0
45950664, 4, 1
45967288, 1, 0
45983936, 1, 0
46000568, 0, 0
46017212, 4, 0
46033864, 36, 1
46051544, 36, 0
46069228, 25, 1
46086892, 0, 1
46103528, 4, 1
46120176, 0, 0
46136812, 1, 0
46153456, 1, 0
46170084, 9, 1
46186744, 4, 4
46203380, 1, 1
46220016, 0, 0
46236656, 4, 1
46253304, 9, 4
46269932, 0, 1
46286568, 0, 0
46303216, 1, 0
46319860, 1, 0
46336496, 49, 4
46354188, 81, 1
46371856, 25, 0
46389540, 4, 1
46406192, 9, 0
46422824, 49, 1
46440500, 16, 4
46458176, 0, 0
46474820, 4, 0
46491468, 4, 1
46508100, 0, 0
46524740, 1, 0
46541380, 0, 0
46558020, 9, 0
46574660, 25, 0
46592344, 25, 0
46610028, 25, 1
46627704, 0, 1
46644340, 1, 0
46660980, 0, 0
46677612, 0, 0
46694264, 0, 0
46710900, 4, 0
46727548, 4, 0
46744184, 100, 4
46762900, 81, 4
46780588, 4, 1
46797220, 1, 1
46813860, 1, 0
46830492, 16, 0
46848176, 1, 0
46864808, 9, 0
46881460, 9, 1
46898088, 0, 0
46914736, 0, 0
46931380, 4, 0
46948020, 0, 0
46964652, 1, 1
46981304, 36, 0
46998984, 4, 1
47015616, 1, 0
47032244, 16, 0
47049940, 4, 1
47066576, 4, 1
47083224, 36, 0
47100892, 16, 4
47118580, 0, 0
47135216, 1, 0
47151856, 16, 0
47169528, 36, 4
47187220, 0, 1
47203872, 36, 1
47221536, 121, 4
47240272, 4, 1
47256896, 144, 4
47275620, 9, 4
47292252, 9, 0
47308896, 9, 0
47325540, 0, 1
47342172, 1, 0
47358812, 0, 1
47375460, 0, 0
47392096, 1, 0
47408736, 4, 1
47425372, 9, 0
47442016, 0, 0
47458664, 0, 1
47475300, 4, 0
47491932, 0, 1
47508580, 4, 0
47525232, 9, 1
47541852, 1, 0
47558496, 36, 1
47576188, 36, 1
47593856, 0, 1
47610496, 9, 1
47627136, 0, 0
47643776, 1, 0
47660420, 1, 0
47677052, 16, 1
47694728, 16, 0
47712416, 0, 0
47729064, 0, 0
47745700, 16, 0
47763380, 9, 1
47780032, 0, 0
47796648, 0, 0
47813292, 0, 1
47829924, 0, 0
47846580, 1, 0
47863212, 1, 1
47879860, 1, 0
47896484, 0, 0
47913140, 4, 0
47929780, 49, 1
47947464, 36, 1
47965128, 16, 1
47982820, 4, 0
47999464, 0, 1
48016100, 16, 0
48033764, 64, 0
48051468, 121, 4
48070180, 169, 9
48088896, 25, 4
48106584, 0, 0
48123232, 9, 1
48139860, 1, 0
48156500, 1, 0
48173136, 9, 0
48189792, 4, 0
48206420, 100, 1
48225136, 4, 4
48241784, 0, 4
48258428, 36, 0
48276100, 49, 4
48293768, 4, 0
48310420, 16, 0
48328096, 25, 0
48345776, 4, 1
48362404, 1, 0
48379060, 0, 0
48395688, 9, 0
48412332, 0, 0
48428976, 4, 0
48445632, 49, 1
48463304, 9, 1
48479944, 9, 0
48496568, 100, 1
48515300, 121, 1
48534012, 121, 4
48552740, 36, 4
48570428, 9, 0
48587064, 16, 0
48604736, 81, 0
48622412, 0, 4
48639064, 36, 0
48656740, 289, 9
48675460, 144, 25
48695216, 4, 0
48711860, 4, 0
48728496, 16, 1
48746176, 49, 9
48763848, 25, 4
48781548, 9, 0
48798180, 1, 1
48814820, 4, 1
48831456, 1, 0
48848108, 1, 0
48864748, 16, 1
48882424, 100, 4
48901144, 64, 1
48918824, 49, 1
48936500, 1, 0
48953140, 36, 9
48970828, 1, 4
48987468, 1, 0
49004104, 1, 0
49020740, 0, 0
49037376, 1, 0
49054020, 25, 1
49071692, 36, 1
49089376, 9, 1
49106024, 9, 1
49122660, 4, 0
49139296, 9, 0
49155932, 4, 0
49172576, 16, 0
49190256, 0, 0
49206900, 0, 0
49223544, 25, 0
49241220, 9, 1
49257860, 0, 0
49274488, 16, 0
49292176, 16, 0
49309860, 1, 0
49326500, 16, 0
49344176, 25, 1
49361848, 49, 1
49379544, 16, 1
49397220, 9, 0
49413852, 121, 1
49432580, 9, 4
49449232, 81, 4
49466912, 100, 1
49485608, 49, 0
49503316, 1, 1
49519940, 16, 0
49537624, 49, 1
49555296, 81, 4
49572984, 36, 1
49590672, 4, 0
49607300, 4, 0
49623928, 9, 0
49640584, 4, 1
49657224, 16, 1
49674896, 25, 4
49692572, 4, 1
49709220, 1, 0
49725856, 0, 0
49742496, 4, 0
49759140, 1, 1
49775784, 4, 0
49792416, 1, 0
49809060, 9, 1
49825692, 1, 0
49842332, 0, 0
49858976, 0, 0
49875612, 4, 0
49892248, 0, 0
49908912, 4, 0
49925544, 64, 0
49943220, 1, 4
49959844, 36, 0
49977544, 16, 4
49995220, 1, 0
50011864, 4, 0
50028492, 4, 1
50045140, 4, 0
50061780, 16, 0
50079452, 16, 0
50097132, 0, 0
50113780, 4, 1
50130408, 0, 4
50147044, 1, 0
50163684, 0, 0
50180340, 4, 1
50196964, 1, 0
50213612, 16, 0
50231304, 64, 1
50248980, 25, 4
50266656, 0, 0
50283296, 0, 0
50299948, 9, 1
50316580, 0, 0
50333220, 36, 1
50350896, 25, 1
50368576, 4, 0
50385224, 0, 0
50401860, 36, 0
50419540, 36, 4
50437228, 16, 1
50454900, 36, 4
50472572, 4, 9
50489212, 0, 0
50505856, 9, 0
50522500, 9, 4
50539136, 0, 1
50555780, 0, 0
50572416, 0, 0
50589068, 4, 0
50605692, 4, 0
50622332, 0, 0
50638972, 0, 0
50655620, 1, 0
50672264, 0, 1
50688900, 0, 0
50705540, 4, 1
50722184, 25, 1
50739860, 1, 1
50756492, 4, 0
50773140, 0, 0
50789780, 1, 0
50806412, 0, 0
50823052, 0, 4
50839708, 0, 1
50856336, 0, 0
50872972, 1, 0
50889612, 0, 1
50906260, 0, 0
50922904, 4, 1
50939536, 4, 1
50956172, 0, 0
50972816, 1, 0
50989456, 0, 0
51006092, 4, 0
51022728, 0, 0
51039376, 4, 0
51056020, 4, 1
51072648, 4, 0
51089288, 9, 0
51105940, 16, 1
51123620, 36, 4
51141288, 36, 4
51158964, 16, 1
51176660, 0, 1
51193292, 4, 0
51209940, 4, 0
51226568, 1, 0
51243228, 9, 1
51259860, 9, 0
51276504, 0, 1
51293128, 4, 1
51309776, 4, 0
51326412, 16, 0
51344100, 9, 4
51360736, 4, 1
51377388, 1, 0
51394024, 0, 0
51410652, 0, 0
51427284, 0, 0
51443940, 4, 0
51460580, 16, 1
51478252, 4, 1
51494892, 4, 0
51511536, 0, 0
51528184, 36, 0
51545864, 4, 1
51562492, 1, 0
51579140, 0, 0
51595772, 0, 0
51612420, 1, 0
51629048, 4, 1
51645696, 16, 0
51663376, 36, 0
51681052, 36, 0
51698740, 1, 4
51715384, 1, 0
51732016, 4, 0
51748648, 4, 4
51765300, 16, 1
51782980, 16, 0
51800656, 0, 1
51817296, 0, 1
51833940, 0, 0
51850576, 0, 0
51867212, 0, 0
51883848, 4, 0
51900500, 9, 0
51917140, 1, 0
51933768, 0, 0
51950408, 0, 0
51967068, 0, 0
51983700, 0, 0
52000328, 0, 0
52016972, 0, 0
52033620, 9, 1
52050260, 36, 4
52067940, 16, 4
52085612, 0, 1
52102256, 1, 0
52118896, 16, 0
52136580, 1, 1
52153208, 0, 0
52169860, 16, 0
52187548, 25, 1
52205220, 1, 0
52221856, 1, 1
52238496, 0, 0
52255140, 0, 0
52271776, 1, 0
52288412, 9, 0
52305056, 0, 0
52321704, 1, 0
52338340, 36, 0
52356008, 25, 1
52373700, 25, 0
52391380, 4, 1
52408020, 0, 1
52424648, 4, 0
52441304, 0, 1
52457940, 4, 1
52474568, 1, 0
52491208, 0, 1
52507860, 4, 0
52524504, 1, 1
52541132, 1, 0
52557772, 4, 1
52574424, 36, 1
52592104, 4, 1
52608740, 0, 1
52625376, 0, 0
52642020, 16, 0
52659692, 49, 9
52677380, 1, 4
52694024, 1, 1
52710660, 16, 1
52728352, 36, 1
52746012, 36, 1
52763704, 25, 1
52781388, 1, 0
52798016, 0, 0
52814648, 0, 0
52831300, 0, 0
52847940, 1, 1
52864580, 0, 0
52881216, 0, 0
52897864, 0, 1
52914500, 0, 0
52931136, 0, 0
52947784, 9, 0
52964416, 4, 0
52981068, 1, 0
52997700, 9, 0
53014344, 9, 1
53030980, 0, 1
53047616, 1, 0
53064252, 4, 0
53080892, 1, 0
53097540, 1, 0
53114180, 0, 0
53130816, 9, 1
53147452, 9, 0
53164112, 1, 0
53180748, 4, 1
53197368, 4, 0
53214016, 0, 0
53230660, 4, 0
53247300, 9, 0
53263932, 1, 0
53280572, 16, 0
53298256, 4, 0
53314904, 0, 1
53331540, 0, 0
53348176, 25, 1
53365864, 100, 1
53384584, 36, 4
53402256, 4, 1
53418892, 0, 0
53435548, 1, 0
53452188, 0, 0
53468808, 0, 0
53485460, 4, 0
53502100, 25, 0
53519780, 9, 1
53536424, 0, 0
53553056, 4, 0
53569708, 49, 1
53587368, 25, 4
53605048, 0, 0
53621684, 1, 0
53638336, 0, 0
53654976, 4, 0
53671612, 36, 4
53689296, 4, 1
53705936, 0, 0
53722568, 0, 0
53739220, 0, 1
53755848, 9, 1
53772500, 64, 0
53790180, 64, 4
53807852, 4, 9
53824484, 0, 0
53841128, 0, 0
53857772, 1, 0
53874416, 4, 1
53891056, 4, 0
53907696, 0, 0
53924332, 1, 0
53940980, 9, 0
53957612, 9, 0
53974268, 9, 0
53990888, 16, 0
54008584, 16, 1
54026272, 0, 0
54042900, 0, 0
54059540, 4, 0
54076184, 36, 0
54093856, 16, 0
54111540, 0, 0
54128172, 4, 0
54144816, 1, 0
54161460, 1, 0
54178100, 1, 0
54194732, 0, 0
54211384, 1, 1
54228020, 0, 0
54244668, 1, 0
54261292, 1, 0
54277940, 4, 0
54294576, 0, 0
54311220, 16, 1
54328896, 0, 1
54345536, 16, 1
54363220, 9, 0
54379860, 0, 0
54396504, 1, 1
54413140, 0, 1
54429780, 4, 1
54446416, 0, 0
54463052, 0, 0
54479700, 1, 0
54496344, 9, 0
54512976, 25, 0
54530656, 49, 1
54548336, 36, 4
54566020, 16, 4
54583704, 0, 1
54600340, 9, 1
54616972, 36, 4
54634660, 16, 1
54652336, 0, 1
54668984, 0, 0
54685616, 9, 0
54702260, 9, 4
54718900, 0, 0
54735532, 1, 1
54752172, 1, 0
54768820, 4, 0
54785452, 0, 1
54802092, 9, 1
54818720, 25, 0
54836420, 0, 0
54853052, 0, 0
54869700, 4, 0
54886336, 36, 0
54904024, 81, 1
54921692, 16, 1
54939372, 4, 0
54956004, 9, 0
54972660, 4, 0
54989292, 1, 0
55005932, 4, 0
55022572, 4, 0
55039220, 4, 0
55055860, 9, 0
55072508, 100, 1
55091228, 64, 4
55108896, 0, 0
55125548, 4, 0
55142172, 0, 1
55158824, 1, 0
55175460, 0, 0
55192100, 1, 0
55208732, 9, 0
55225380, 1, 0
55242024, 36, 1
55259700, 4, 1
55276340, 0, 0
55292976, 0, 1
55309616, 4, 0
55326264, 0, 1
55342900, 0, 0
55359536, 4, 0
55376176, 4, 0
55392820, 4, 0
55409460, 1, 0
55426100, 0, 0
55442740, 0, 0
55459368, 0, 0
55476016, 1, 0
55492656, 1, 0
55509300, 0, 1
55525932, 0, 0
55542580, 1, 0
55559220, 4, 1
55575868, 1, 0
55592496, 9, 1
55609128, 0, 0
55625776, 4, 0
55642420, 0, 0
55659052, 0, 1
55675704, 1, 1
55692348, 1, 0
55708984, 9, 0
55725612, 1, 1
55742268, 0, 0
55758896, 0, 0
55775536, 1, 0
55792184, 0, 0
55808816, 0, 0
55825460, 1, 0
55842112, 0, 1
55858732, 36, 1
55876416, 1, 0
55893064, 1, 0
55909700, 1, 0
55926332, 0, 0
55942972, 0, 1
55959620, 1, 0
55976256, 9, 0
55992896, 9, 1
56009532, 0, 1
56026188, 1, 0
56042816, 0, 0
56059448, 1, 0
56076088, 0, 0
56092740, 0, 0
56109380, 16, 1
56127060, 49, 1
56144732, 36, 1
56162420, 1, 0
56179060, 1, 0
56195700, 0, 0
56212340, 1, 0
56228988, 16, 4
56246668, 1, 0
56263300, 1, 1
56279932, 0, 0
56296580, 0, 0
56313216, 4, 0
56329864, 0, 0
56346492, 16, 0
56364180, 4, 0
56380820, 1, 0
56397452, 0, 0
56414088, 1, 0
56430740, 9, 0
56447384, 9, 0
56464024, 1, 1
56480652, 0, 1
56497308, 4, 0
56513944, 36, 1
56531612, 9, 0
56548252, 0, 0
56564896, 1, 0
56581540, 0, 0
56598168, 1, 1
56614812, 9, 0
56631460, 4, 1
56648096, 0, 0
56664728, 9, 0
56681368, 16, 0
56699064, 16, 1
56716732, 1, 0
56733372, 4, 0
56750000, 16, 0
56767700, 9, 1
56784340, 9, 0
56800976, 0, 1
56817608, 9, 0
56834260, 4, 0
56850900, 1, 0
56867536, 0, 1
56884176, 1, 1
56900824, 4, 1
56917448, 1, 0
56934088, 1, 0
56950728, 36, 1
56968424, 64, 0
56986100, 16, 1
57003776, 0, 0
57020412, 1, 0
57037060, 1, 0
57053696, 1, 0
57070336, 16, 0
57088020, 0, 0
57104660, 4, 0
57121312, 1, 1
57137928, 0, 0
57154576, 1, 0
57171220, 0, 0
57187864, 1, 0
57204496, 1, 0
57221140, 4, 0
57237776, 4, 0
57254420, 9, 1
57271064, 4, 0
57287700, 25, 0
57305380, 144, 4
57324096, 25, 9
57341776, 4, 0
57358420, 25, 0
57376096, 16, 0
57393768, 0, 4
57410420, 1, 0
57427068, 4, 1
57443708, 1, 0
57460340, 9, 0
57476980, 16, 1
57494664, 0, 0
57511296, 1, 0
57527940, 4, 0
57544568, 4, 0
57561216, 16, 0
57578908, 16, 1
57596572, 0, 1
57613212, 0, 0
57629856, 0, 0
57646500, 4, 0
57663128, 1, 0
57679776, 4, 1
57696420, 9, 1
57713056, 1, 0
57729696, 1, 0
57746328, 16, 0
57764024, 9, 1
57780664, 1, 4
57797292, 4, 0
57813936, 9, 0
57830576, 1, 0
57847208, 16, 0
57864888, 49, 0
57882568, 81, 4
57900256, 36, 16
57918976, 0, 1
57935620, 9, 0
57952248, 9, 0
57968900, 4, 0
57985536, 1, 0
58002180, 4, 0
58018808, 0, 1
58035460, 0, 0
58052100, 1, 0
58068740, 1, 0
58085364, 4, 0
58102024, 9, 0
58118656, 16, 4
58136340, 25, 4
58154016, 9, 0
58170656, 0, 0
58187296, 0, 0
58203932, 0, 0
58220580, 9, 0
58237216, 16, 0
58254892, 4, 0
58271532, 0, 1
58288180, 0, 0
58304820, 0, 0
58321460, 0, 0
58338096, 0, 0
58354740, 4, 0
58371376, 4, 1
58388016, 0, 0
58404656, 0, 0
58421300, 16, 1
58438980, 36, 0
58456664, 9, 1
58473300, 4, 0
58489940, 4, 0
58506588, 0, 0
58523216, 4, 0
58539852, 16, 0
58557544, 9, 0
58574180, 16, 0
58591860, 9, 1
58608492, 0, 1
58625136, 1, 0
58641780, 4, 0
58658412, 0, 0
58675064, 4, 0
58691700, 25, 0
58709376, 16, 0
58727052, 9, 0
58743700, 1, 0
58760340, 0, 0
58776988, 0, 0
58793620, 0, 0
58810252, 0, 0
58826900, 4, 0
58843536, 1, 1
58860172, 0, 0
58876820, 1, 0
58893460, 4, 0
58910100, 0, 1
58926744, 4, 0
58943380, 0, 0
58960016, 0, 1
58976660, 1, 0
58993300, 1, 1
59009932, 4, 0
59026580, 9, 1
59043220, 4, 1
59059860, 1, 0
59076488, 0, 0
59093140, 0, 0
59109784, 16, 0
59127468, 49, 1
59145140, 9, 1
59161788, 0, 0
59178420, 0, 0
59195052, 1, 0
59211684, 0, 0
59228340, 4, 0
59244968, 1, 0
59261612, 0, 0
59278248, 0, 0
59294912, 1, 0
59311540, 16, 0
59329224, 36, 1
59346888, 1, 0
59363540, 4, 0
59380184, 0, 1
59396816, 0, 0
59413444, 0, 0
59430096, 0, 0
59446740, 4, 0
59463372, 64, 1
59481048, 100, 4
59499792, 16, 1
59517468, 0, 0
59534088, 4, 0
59550740, 9, 0
59567380, 0, 1
59584016, 16, 0
59601688, 16, 4
59619388, 1, 1
59636024, 0, 0
59652656, 36, 0
59670340, 64, 4
59688020, 1, 4
59704660, 9, 0
59721304, 4, 0
59737940, 0, 0
59754592, 1, 0
59771220, 9, 0
59787856, 1, 0
59804488, 0, 0
59821144, 4, 1
59837780, 1, 0
59854428, 4, 1
59871068, 16, 1
59888740, 0, 0
59905380, 25, 0
59923060, 1, 4
59939700, 1, 0
59956340, 0, 1
59972988, 1, 0
59989616, 4, 0
60006252, 9, 1
60022900, 36, 1
60040584, 4, 1
60057220, 0, 4
60073864, 25, 16
60092592, 49, 1
60110248, 0, 0
60126900, 9, 4
60143536, 1, 4
60160188, 9, 9
60176824, 0, 1
60193460, 0, 1
60210100, 9, 1
60226752, 16, 16
60245464, 1, 16
60263148, 4, 0
60279776, 9, 49
60297456, 4, 81
60315136, 0, 4
60331780, 9, 9
60348404, 9, 144
60367148, 36, 169
60386900, 25, 49
60405612, 25, 441
60425388, 49, 625
60445132, 81, 324
60464888, 81, 36
60483624, 9, 289
60502336, 16, 100
60522092, 81, 169
60541860, 144, 484
60562664, 400, 25
60582436, 256, 169
60603212, 36, 25
60621944, 100, 25
60641700, 1, 9
60658344, 0, 441
60677056, 9, 361
60695776, 36, 36
60714500, 16, 400
60734252, 49, 121
60754020, 121, 25
60773780, 16, 81
60792500, 4, 49
60810176, 0, 4
60826832, 25, 0
60844500, 1, 196
60863224, 16, 400
60882980, 100, 625
60903784, 196, 529
60924560, 196, 1089
60946400, 169, 2025
60968260, 169, 121
60989052, 64, 144
61008816, 9, 0
61025476, 4, 256
61044172, 36, 169
61063936, 25, 0
61081620, 25, 1
61099304, 16, 1
61116976, 0, 0
61133620, 1, 4
61150264, 0, 0
61166900, 1, 0
61183532, 36, 1
61201208, 36, 0
61218896, 4, 121
61237628, 36, 49
61256340, 25, 36
61275048, 0, 81
61292736, 25, 16
61311456, 25, 49
61330188, 9, 324
61348900, 36, 289
61368672, 36, 64
61387380, 1, 9
61404020, 4, 0
61420656, 16, 0
61438336, 0, 25
61456024, 4, 169
61474736, 0, 16
61492428, 1, 1
61509052, 0, 1
61525688, 0, 0
61542328, 0, 0
61558980, 0, 1
61575612, 0, 4
61592248, 0, 0
61608888, 0, 1
61625552, 1, 1
61642168, 0, 0
61658812, 0, 1
61675448, 36, 4
61693140, 169, 36
61712904, 100, 64
61732652, 64, 16
61751384, 36, 4
61769060, 0, 9
61785712, 4, 4
61802344, 0, 4
61818976, 9, 256
61837696, 0, 529
61856424, 25, 4
61874088, 16, 4
61891792, 1, 49
61909456, 49, 81
61928180, 36, 9
61945848, 9, 4
61962504, 0, 4
61979140, 0, 9
61995772, 4, 9
62012412, 0, 25
62030108, 25, 16
62048812, 1, 100
62067540, 9, 121
62086256, 0, 9
62102908, 1, 4
62119536, 0, 9
62136184, 9, 1
62152824, 36, 9
62170500, 49, 4
62188176, 25, 0
62205852, 1, 1
62222496, 0, 4
62239140, 0, 1
62255780, 4, 169
62274492, 49, 324
62294252, 100, 324
62315068, 1, 400
62333780, 121, 16
62353548, 9, 36
62371236, 1, 16
62388896, 25, 4
62406568, 0, 169
62425296, 9, 100
62444020, 9, 729
62462740, 36, 1444
62483552, 169, 324
62504352, 25, 16
62523060, 0, 81
62540724, 1, 16
62558420, 25, 144
62578184, 121, 324
62598976, 16, 16
62617704, 16, 9
62635384, 9, 361
62654096, 16, 361
62673852, 9, 121
62692588, 225, 25
62712348, 169, 49
62732092, 169, 289
62752904, 81, 64
62771620, 0, 4
62788248, 0, 900
62806960, 1, 2116
62826736, 100, 529
62847544, 121, 400
62868340, 0, 289
62887068, 4, 49
62904736, 1, 625
62923456, 4, 1764
62943204, 289, 961
62964032, 484, 289
62984816, 361, 324
63005604, 256, 144
63026424, 36, 25
63045156, 1, 9
63061772, 25, 576
63081548, 121, 676
63102336, 144, 36
63122096, 0, 25
63139776, 0, 64
63157460, 25, 484
63177224, 16, 0
63194896, 121, 100
63215700, 64, 64
63234432, 9, 64
63252100, 81, 4
63269772, 9, 169
63288500, 0, 0
63305136, 25, 484
63324900, 4, 361
63343608, 121, 64
63363384, 64, 0
63381044, 100, 81
63400816, 4, 289
63419540, 49, 289
63439312, 49, 529
63459064, 1, 36
63476724, 0, 484
63495456, 9, 81
63513128, 16, 36
63531868, 9, 25
63549552, 1, 49
63567216, 49, 121
63586976, 0, 16
63604656, 64, 4
63622340, 9, 196
63641060, 16, 256
63660808, 100, 81
63680580, 64, 100
63700352, 25, 25
63719068, 16, 0
63736736, 0, 25
63754424, 4, 81
63772100, 4, 0
63788728, 64, 576
63808492, 121, 784
63829300, 64, 9
63846976, 25, 16
63865696, 1, 1
63882348, 1, 1
63898980, 1, 0
63915620, 1, 4
63932256, 0, 4
63948904, 16, 25
63967628, 25, 16
63986340, 4, 16
64004016, 9, 4
64020660, 25, 4
64038340, 0, 0
64054976, 0, 9
64071612, 1, 4
64088260, 0, 0
64104892, 36, 36
64123620, 100, 196
64144432, 49, 225
64164176, 4, 121
64182904, 16, 289
64202656, 100, 484
64223464, 144, 324
64244264, 169, 576
64265060, 81, 64
64283776, 4, 100
64302500, 16, 25
64321220, 25, 16
64339932, 16, 121
64359696, 25, 36
64378412, 0, 9
64395060, 25, 1
64412748, 16, 64
64431460, 0, 25
64449132, 4, 4
64465780, 1, 4
64482428, 1, 4
64499068, 4, 0
64515688, 9, 9
64532332, 0, 9
64548988, 1, 36
64566668, 4, 0
64583292, 0, 16
64600980, 1, 25
64618660, 0, 9
64635304, 0, 1
64651940, 1, 1
64668576, 0, 4
64685224, 4, 4
64701860, 1, 0
64718488, 0, 9
64735132, 0, 16
64752824, 0, 144
64771540, 25, 729
64791292, 144, 144
64812104, 81, 0
64829784, 49, 9
64847464, 25, 16
64866180, 25, 0
64883860, 4, 4
64900500, 4, 0
64917132, 64, 121
64936892, 81, 81
64955620, 49, 4
64973300, 0, 0
64989944, 16, 144
65009708, 0, 400
65028428, 4, 100
65047132, 4, 36
65064812, 1, 529
65083536, 0, 2809
65103288, 81, 625
65123052, 144, 0
65141780, 0, 9
65158424, 0, 144
65177128, 16, 81
65195852, 0, 1
65212500, 4, 9
65229148, 9, 16
65246816, 64, 0
65264496, 9, 81
65282176, 4, 64
65299860, 16, 16
65318584, 1, 0
65335216, 9, 36
65352912, 1, 16
65370576, 9, 9
65387208, 4, 36
65404896, 25, 196
65424660, 16, 100
65444408, 9, 16
65462092, 4, 36
65479780, 0, 0
65496432, 1, 4
65513064, 9, 1
65529696, 9, 9
65546348, 0, 9
65562980, 0, 49
65580656, 4, 144
65599376, 9, 16
65617064, 0, 1
65633700, 0, 1
65650332, 4, 0
65666968, 16, 25
65685708, 16, 100
65705456, 9, 4
65722104, 0, 9
65738740, 9, 1
65755384, 1, 81
65773064, 1, 1
65789700, 0, 64
65807388, 0, 64
65825060, 1, 0
65841700, 16, 81
65860420, 25, 25
65879148, 0, 0
65895776, 0, 16
65913460, 9, 64
65931144, 9, 1
65947788, 0, 81
65965468, 4, 36
65983140, 9, 25
66000816, 1, 0
66017472, 1, 121
66036180, 0, 100
66054896, 9, 25
66072564, 16, 9
66090272, 16, 9
66107956, 4, 49
66125620, 1, 0
66142264, 0, 16
66159948, 1, 16
66177616, 4, 25
66195304, 1, 9
66211948, 1, 0
66228592, 1, 4
66245220, 1, 225
66263928, 1, 256
66282664, 1, 0
66299300, 0, 16
66316976, 9, 25
66334656, 0, 1
66351308, 1, 16
66368976, 4, 4
66385624, 4, 9
66402260, 0, 4
66418908, 1, 49
66436580, 49, 100
66456340, 16, 0
66474016, 0, 81
66491704, 0, 64
66509380, 0, 4
66526024, 0, 4
66542660, 0, 25
66560340, 1, 64
66578024, 4, 64
66595704, 1, 1
66612348, 0, 0
66628980, 4, 9
66645612, 16, 1
66663312, 9, 1
66679956, 0, 9
66696588, 1, 9
66713212, 4, 9
66729860, 1, 16
66747548, 0, 169
66766260, 25, 25
66784984, 16, 9
66802648, 0, 0
66819296, 9, 4
66835936, 1, 16
66853620, 1, 1
66870252, 4, 4
66886896, 1, 0
66903528, 4, 0
66920172, 1, 0
66936808, 1, 1
66953456, 0, 64
66971140, 1, 289
66989860, 9, 16
67007548, 4, 0
67024180, 1, 49
67041860, 9, 100
67060572, 16, 16
67079304, 0, 4
67095948, 1, 1
67112576, 0, 36
67130256, 1, 25
67147940, 1, 9
67164576, 9, 9
67181220, 9, 1
67197852, 9, 1
67214504, 1, 4
67231144, 1, 4
67247780, 16, 0
67265448, 64, 16
67284176, 25, 36
67302896, 0, 16
67320568, 0, 0
67337204, 4, 0
67353856, 4, 0
67370500, 1, 0
67387136, 0, 4
67403776, 0, 16
67421472, 0, 25
67439148, 0, 9
67455780, 0, 1
67472424, 4, 4
67489060, 4, 9
67505704, 1, 25
67523368, 0, 36
67541060, 1, 1
67557704, 9, 9
67574328, 0, 0
67590976, 1, 25
67608660, 0, 25
67626348, 4, 9
67642976, 16, 64
67661696, 0, 0
67678352, 9, 0
67694980, 4, 1
67711612, 4, 25
67729296, 1, 121
67748016, 4, 36
67765688, 1, 0
67782328, 0, 16
67800000, 4, 49
67817708, 9, 9
67834340, 4, 4
67850980, 0, 1
67867612, 0, 0
67884268, 1, 9
67900888, 0, 16
67918572, 1, 25
67936264, 1, 36
67953940, 1, 1
67970580, 1, 16
67988260, 0, 1
68004900, 0, 4
68021540, 1, 4
68038180, 0, 9
68054812, 0, 25
68072504, 9, 0
68089140, 0, 225
68107860, 25, 289
68127616, 0, 0
68144260, 1, 64
68161944, 9, 4
68178572, 36, 121
68198332, 64, 25
68217064, 16, 0
68234748, 0, 4
68251376, 0, 36
68269048, 0, 49
68286740, 9, 25
68304416, 4, 196
68323140, 25, 64
68341860, 81, 9
68359544, 4, 25
68377224, 16, 64
68395936, 1, 0
68412588, 0, 9
68429224, 0, 9
68445848, 9, 9
68462496, 1, 196
68481228, 16, 256
68500984, 9, 9
68517616, 1, 64
68535292, 0, 4
68551940, 4, 225
68570668, 49, 289
68590412, 4, 81
68608096, 49, 4
68625780, 16, 9
68643464, 4, 1
68660104, 9, 64
68677784, 0, 16
68695460, 0, 64
68713144, 1, 81
68730816, 9, 0
68747472, 4, 36
68765132, 4, 16
68782820, 25, 4
68800488, 25, 1
68818192, 9, 1
68834816, 16, 9
68852496, 4, 81
68870180, 1, 1
68886820, 1, 4
68903456, 0, 25
68921140, 4, 49
68938832, 9, 36
68956500, 4, 16
68974172, 16, 100
68993936, 9, 289
69012668, 9, 36
69030344, 0, 1
69046976, 1, 0
69063604, 1, 36
69081296, 0, 256
69100016, 36, 256
69119780, 49, 144
69139548, 1, 1
69156180, 0, 4
69172820, 1, 0
69189456, 0, 16
69207140, 4, 4
69223784, 4, 121
69242500, 0, 9
69259136, 0, 4
69275792, 16, 36
69294500, 25, 100
69314264, 4, 49
69331924, 0, 81
69349620, 0, 36
69367292, 0, 25
69384988, 0, 49
69402668, 0, 1
69419300, 1, 4
69435952, 1, 1
69452572, 0, 0
69469220, 0, 0
69485864, 4, 1
69502508, 16, 25
69521212, 49, 225
69540984, 121, 64
69560740, 36, 1764
69581528, 169, 576
69602344, 196, 16
69622108, 0, 16
69639784, 16, 36
69658492, 49, 324
69678268, 9, 169
69696976, 4, 0
69713620, 1, 0
69730252, 25, 4
69747940, 16, 64
69766656, 1, 324
69785376, 25, 225
69805144, 81, 144
69824900, 64, 25
69843616, 1, 100
69862336, 9, 100
69881076, 16, 25
69899772, 9, 225
69918496, 25, 256
69938256, 49, 49
69956988, 36, 9
69974664, 25, 121
69994408, 9, 36
70012104, 0, 16
70029772, 0, 4
70046412, 0, 9
70063044, 0, 9
70079708, 9, 1
70096344, 36, 16
70115060, 0, 49
70132728, 0, 4
70149380, 16, 0
70167060, 0, 0
70183688, 36, 0
70201392, 256, 0
70220112, 400, 4
70238820, 81, 0
70256492, 64, 121
70276264, 196, 49
70296012, 225, 0
70314732, 81, 0
70332412, 4, 9
70349060, 64, 36
70367784, 36, 4
70385452, 0, 4
70402104, 144, 4
70420816, 324, 0
70439552, 49, 1
70457220, 25, 1
70474896, 1, 4
70491536, 4, 0
70508180, 1, 4
70524820, 4, 4
70541456, 0, 0
70558100, 9, 4
70574736, 9, 1
70591384, 81, 9
70609064, 1, 25
70626744, 256, 1
70645464, 169, 1
70664184, 9, 0
70680832, 100, 1
70699552, 9, 0
70716176, 169, 0
70734904, 49, 4
70752580, 4, 0
70769212, 16, 4
70786892, 64, 4
70804580, 4, 25
70822268, 9, 49
70839944, 1, 144
70858656, 225, 36
70878416, 256, 9
70897132, 36, 4
70914816, 36, 121
70934580, 81, 16
70953300, 121, 16
70973056, 16, 0
70990736, 36, 4
71008424, 81, 4
71026104, 1, 1
71042748, 121, 1
71061456, 196, 25
71081212, 100, 4
71099940, 64, 0
71117620, 36, 25
71136340, 4, 4
71152980, 0, 4
71169624, 49, 9
71187292, 400, 0
71206024, 100, 16
71225772, 196, 16
71245532, 169, 1
71264252, 81, 0
71281948, 25, 9
71299616, 25, 4
71317296, 0, 16
71334984, 81, 1
71352668, 4, 1
71369304, 64, 4
71386980, 16, 4
71404660, 16, 1
71422340, 49, 1
71440028, 1, 1
71456652, 25, 0
71474348, 16, 0
71492024, 25, 4
71509692, 16, 49
71528412, 1, 100
71547140, 16, 36
71565864, 9, 4
71582492, 169, 0
71601216, 529, 121
71622016, 169, 256
71642816, 1, 81
71660488, 64, 4
71678180, 196, 1
71696900, 25, 9
71714584, 49, 25
71733308, 225, 1
71752020, 100, 36
71771772, 16, 25
71790496, 9, 4
71807140, 64, 4
71824820, 1, 4
71841452, 4, 1
71858100, 36, 0
71875792, 121, 1
71894496, 36, 16
71913220, 4, 1
71929852, 0, 1
71946500, 9, 4
71963136, 0, 1
71979772, 4, 0
71996412, 0, 4
72013056, 4, 0
72029692, 100, 0
72048416, 121, 1
72067140, 0, 1
72083780, 1, 0
72100420, 0, 0
72117056, 64, 1
72134740, 121, 9
72153468, 256, 25
72173220, 100, 25
72192976, 9, 0
72209620, 49, 4
72227292, 16, 9
72244980, 0, 36
72262652, 9, 81
72280340, 289, 49
72300108, 225, 1
72318824, 1, 1
72335460, 16, 0
72353144, 64, 1
72370816, 529, 4
72389532, 64, 1
72407224, 169, 4
72425944, 49, 1
72443624, 49, 9
72461292, 121, 4
72480020, 0, 1
72496664, 0, 0
72513300, 100, 0
72532024, 144, 9
72550740, 4, 4
72567376, 0, 9
72584020, 49, 9
72601700, 49, 0
72619384, 0, 1
72636020, 169, 1
72654736, 256, 0
72673468, 196, 0
72692176, 144, 1
72710900, 9, 0
72727524, 0, 9
72744184, 1, 1
72760812, 25, 4
72778504, 144, 1
72797224, 361, 0
72815940, 81, 9
72833620, 0, 16
72851300, 36, 25
72870032, 100, 4
72888740, 36, 0
72906412, 1, 1
72923052, 64, 0
72940744, 169, 4
72959452, 4, 0
72976104, 64, 1
72993772, 256, 0
73012508, 289, 9
73031220, 16, 4
73048900, 1, 4
73065540, 25, 4
73083220, 16, 4
73100892, 0, 0
73117536, 0, 1
73134184, 100, 0
73152904, 441, 1
73171616, 225, 9
73190336, 100, 9
73209064, 49, 16
73227768, 9, 4
73244420, 225, 4
73263140, 256, 4
73281860, 169, 4
73300580, 49, 25
73319300, 9, 4
73335944, 1, 36
73353620, 225, 25
73373384, 256, 4
73392088, 0, 0
73408736, 169, 16
73428504, 36, 0
73446180, 36, 4
73463860, 49, 16
73482584, 25, 36
73501304, 100, 1
73520020, 1, 1
73536656, 25, 1
73554340, 9, 0
73570976, 9, 0
73587616, 9, 0
73604276, 4, 0
73620908, 25, 0
73638584, 81, 1
73656252, 16, 0
73673940, 0, 4
73690568, 4, 9
73707220, 1, 1
73723844, 64, 4
73741556, 225, 1
73760256, 324, 16
73780012, 36, 1
73797700, 1, 0
73814348, 25, 0
73832012, 0, 1
73848660, 1, 1
73865312, 16, 0
73882988, 36, 1
73900660, 25, 0
73918336, 16, 0
73936024, 16, 4
73953700, 25, 16
73972420, 49, 4
73990088, 289, 9
74008820, 100, 9
74027556, 0, 4
74044180, 225, 0
74062908, 121, 1
74081628, 1, 4
74098264, 49, 0
74115944, 36, 36
74134656, 9, 16
74152340, 1, 1
74168968, 25, 0
74186652, 16, 0
74204340, 9, 4
74220972, 25, 4
74238660, 1, 0
74255288, 25, 0
74272984, 0, 1
74289620, 25, 1
74307300, 36, 1
74324976, 1, 0
74341628, 0, 1
74358260, 81, 4
74375936, 144, 16
74395704, 16, 1
74413380, 16, 9
74431060, 4, 25
74448732, 289, 1
74467464, 289, 9
74486184, 49, 9
74503856, 49, 1
74521524, 100, 0
74540260, 0, 4
74556904, 9, 4
74573544, 16, 0
74591216, 16, 0
74608904, 4, 1
74625536, 81, 4
74643224, 144, 0
74661948, 81, 1
74679624, 0, 36
74697304, 4, 9
74713944, 49, 0
74731632, 9, 16
74749308, 9, 4
74765940, 16, 0
74783620, 1, 0
74800260, 36, 4
74817940, 16, 9
74835620, 1, 1
74852252, 0, 0
74868888, 0, 0
74885540, 9, 1
74902184, 1, 1
74918816, 121, 1
74937548, 196, 4
74956252, 81, 1
74973940, 36, 9
74991612, 36, 0
75009296, 16, 4
75026980, 16, 36
75045692, 16, 25
75064416, 0, 0
75081060, 0, 16
75098732, 4, 9
75115372, 49, 4
75133056, 64, 4
75150740, 4, 0
75167384, 4, 1
75184012, 4, 0
75200664, 16, 4
75218344, 64, 0
75236020, 144, 9
75254732, 324, 16
75274496, 289, 0
75293228, 144, 1
75311940, 1, 1
75328584, 121, 0
75347308, 0, 0
75363944, 16, 9
75381628, 64, 1
75399296, 169, 0
75418020, 81, 4
75435700, 4, 4
75452332, 25, 0
75470020, 100, 1
75488744, 36, 9
75506424, 36, 0
75524084, 256, 1
75542824, 196, 9
75561544, 49, 1
75579212, 81, 0
75596912, 196, 4
75615620, 64, 1
75633296, 100, 16
75653044, 400, 16
75672824, 64, 9
75690496, 1, 0
75707132, 9, 4
75723784, 25, 9
75741464, 64, 9
75759152, 196, 9
75777860, 16, 4
75795560, 1, 1
75812184, 0, 4
75828812, 4, 0
75845452, 0, 4
75862112, 49, 1
75879784, 169, 16
75899532, 144, 9
75918248, 25, 0
75935952, 64, 4
75953616, 4, 25
75971304, 144, 1
75990012, 144, 25
76009780, 49, 1
76027448, 36, 1
76045128, 49, 0
76062820, 49, 1
76080508, 1, 1
76097136, 36, 1
76114816, 9, 0
76131460, 0, 0
76148108, 0, 4
76164740, 36, 0
76182424, 196, 0
76201152, 144, 1
76219864, 0, 36
76237544, 25, 9
76255220, 0, 4
76271872, 121, 16
76291624, 625, 25
76311376, 256, 16
76331140, 64, 0
76348828, 100, 9
76367544, 144, 1
76386248, 169, 25
76406028, 36, 1
76423708, 225, 0
76442412, 324, 25
76462180, 49, 4
76479864, 16, 4
76497536, 81, 4
76515212, 361, 0
76533940, 529, 1
76552652, 49, 16
76571384, 36, 1
76589048, 9, 36
76606752, 0, 4
76623396, 16, 4
76641056, 144, 4
76659780, 64, 4
76677460, 9, 0
76694092, 1, 4
76710736, 36, 1
76728420, 169, 1
76747148, 25, 1
76764824, 25, 1
76782496, 16, 1
76800188, 36, 1
76817864, 169, 0
76836576, 169, 25
76856336, 100, 16
76876096, 81, 4
76893788, 0, 4
76910412, 36, 0
76928112, 9, 0
76944744, 25, 0
76962412, 16, 9
76980096, 49, 4
76997784, 256, 0
77016504, 361, 1
77035216, 169, 16
77054968, 4, 9
77071624, 121, 0
77090348, 64, 36
77109064, 1, 144
77127784, 0, 100
77146508, 0, 64
77164168, 0, 16
77181856, 4, 4
77198500, 36, 36
77217224, 144, 4
77235940, 64, 1
77253616, 16, 0
77271304, 169, 16
77291064, 100, 49
77310820, 0, 9
77327464, 25, 0
77345152, 16, 0
77362820, 144, 4
77381536, 225, 16
77401308, 196, 64
77421060, 1, 49
77438736, 100, 1
77457468, 1, 4
77474108, 9, 9
77490748, 4, 4
77507376, 289, 4
77526104, 729, 16
77545872, 196, 9
77564580, 36, 1
77582256, 16, 9
77599940, 9, 4
77616588, 16, 1
77634264, 1, 1
77650900, 256, 1
77669616, 400, 9
77688344, 484, 16
77708088, 196, 36
77727876, 36, 1
77745540, 324, 16
77765300, 36, 4
77782984, 4, 9
77799628, 121, 0
77818336, 196, 16
77838104, 64, 0
77855788, 0, 4
77872420, 0, 1
77889068, 121, 9
77907780, 225, 0
77926500, 225, 16
77946272, 16, 9
77963940, 81, 0
77981608, 64, 4
77999296, 0, 0
78015940, 144, 4
78034656, 121, 0
78053384, 4, 0
78070016, 0, 0
78086660, 25, 9
78104336, 1, 9
78120976, 4, 1
78137620, 64, 0
78155308, 289, 9
78174024, 100, 9
78192760, 1, 1
78209396, 1, 36
78227060, 1, 36
78244752, 4, 9
78261384, 25, 0
78279060, 1, 4
78295700, 64, 0
78313376, 100, 4
78332112, 1, 1
78348736, 100, 0
78367452, 25, 1
78385132, 16, 1
78402820, 49, 1
78420516, 1, 4
78437128, 169, 0
78455860, 64, 9
78473540, 0, 0
78490180, 1, 0
78506812, 16, 9
78524508, 49, 4
78542180, 144, 4
78560892, 49, 9
78578580, 36, 0
78596260, 25, 0
78613948, 9, 4
78630576, 36, 4
78648248, 0, 4
78664912, 9, 9
78681540, 9, 9
78698168, 64, 0
78715844, 25, 1
78733540, 1, 4
78750180, 1, 4
78766820, 4, 0
78783444, 0, 1
78800100, 36, 1
78817788, 25, 0
78835452, 36, 4
78853148, 49, 9
78870816, 144, 4
78889536, 529, 4
78908256, 81, 9
78925944, 64, 9
78943624, 81, 16
78962328, 64, 0
78980008, 81, 1
78997708, 49, 4
79015372, 0, 0
79032016, 100, 0
79050732, 100, 0
79069456, 25, 0
79087144, 64, 1
79104816, 100, 4
79123548, 49, 1
79141220, 100, 4
79159928, 36, 4
79177620, 1, 0
79194256, 1, 0
79210900, 0, 0
79227532, 0, 0
79244168, 4, 0
79260824, 25, 4
79278504, 49, 4
79296184, 9, 1
79312804, 0, 0
79329460, 0, 0
79346100, 0, 4
79362744, 4, 0
79379360, 16, 0
79397060, 16, 1
79414736, 100, 0
79433448, 196, 1
79452184, 64, 1
79469868, 1, 1
79486504, 4, 0
79503144, 9, 0
79519788, 16, 1
79537456, 0, 0
79554096, 49, 4
79571776, 144, 25
79591544, 169, 9
79610268, 196, 4
79628980, 25, 4
79646648, 0, 1
79663304, 64, 1
79680972, 225, 9
79699700, 9, 1
79716336, 81, 4
79734028, 4, 0
79750664, 16, 1
79768332, 36, 0
79786024, 64, 1
79803712, 16, 4
79821380, 1, 0
79838008, 0, 0
79854660, 1, 4
79871304, 9, 1
79887940, 4, 0
79904584, 0, 0
79921232, 1, 1
79937860, 0, 4
79954492, 0, 0
79971132, 0, 0
79987792, 36, 0
80005468, 144, 16
80025220, 16, 4
80042900, 0, 1
80059540, 0, 0
80076192, 4, 9
80092816, 0, 1
80109452, 16, 0
80127148, 1, 1
80143788, 0, 0
80160416, 0, 4
80177056, 1, 0
80193712, 0, 0
80210336, 9, 25
80228020, 9, 4
80244656, 121, 16
80264432, 100, 9
80283136, 121, 9
80301856, 169, 9
80320588, 4, 0
80337216, 100, 49
80356980, 36, 169
80376736, 4, 16
80394428, 4, 25
80412092, 1, 16
80429780, 4, 1
80446416, 36, 36
80465148, 4, 1
80481776, 25, 169
80501548, 0, 16
80519224, 1, 16
80536896, 0, 64
80554596, 25, 576
80574340, 121, 1444
80596168, 25, 36
80614888, 16, 2116
80635700, 36, 196
80655468, 25, 64
80674180, 81, 25
80692892, 324, 169
80713692, 144, 36
80733460, 81, 169
80753220, 1, 729
80771940, 196, 81
80791708, 81, 225
80811456, 1, 25
80829120, 25, 961
80848884, 256, 3136
80870740, 289, 961
80891540, 225, 49
80911284, 16, 0
80928984, 1, 25
80946664, 9, 16
80964336, 1, 484
80983056, 81, 1936
81003864, 100, 36
81023616, 1, 1089
81043372, 49, 1444
81064176, 4, 36
81081852, 0, 784
81100580, 16, 49
81119304, 64, 676
81139052, 0, 169
81157772, 9, 1
81174424, 9, 4
81191076, 4, 16
81208752, 1, 36
81226420, 4, 9
81243052, 49, 81
81261788, 25, 9
81279464, 4, 225
81298168, 25, 121
81317944, 25, 9
81335628, 4, 1
81352260, 0, 144
81370984, 9, 9
81387636, 0, 196
81406344, 81, 1
81424012, 36, 36
81442728, 25, 36
81461460, 1, 324
81480180, 25, 2500
81500980, 16, 2209
81521792, 4, 16
81539460, 81, 625
81559212, 81, 0
81576892, 16, 100
81596660, 0, 169
81615384, 1, 1
81632012, 49, 1444
81652816, 676, 1089
81674660, 900, 16
81694412, 225, 81
81714180, 81, 100
81733948, 144, 9
81752656, 36, 49
81771372, 16, 16
81790100, 121, 121
81810892, 361, 64
81830660, 121, 9
81849388, 49, 1
81867068, 64, 49
81885780, 36, 9
81903452, 36, 0
81921144, 9, 81
81938828, 4, 81
81956496, 64, 121
81976252, 0, 441
81994984, 121, 121
82015796, 121, 4
82034512, 25, 1
82052176, 4, 225
82070904, 9, 1089
82090648, 36, 49
82109372, 36, 169
82129136, 0, 25
82146820, 4, 4
82163456, 1, 64
82181148, 4, 484
82199852, 25, 484
82219620, 16, 1764
82240416, 9, 1681
82260180, 64, 256
82279936, 4, 81
82297620, 16, 4
82315300, 100, 4
82334020, 1, 81
82351704, 36, 324
82371460, 16, 9
82389148, 36, 4
82406824, 64, 49
82425532, 64, 4
82443208, 25, 4
82460904, 0, 36
82478572, 0, 36
82496256, 0, 25
82513956, 25, 0
82531628, 64, 0
82549292, 289, 4
82568012, 25, 1
82585708, 64, 36
82604428, 169, 196
82625216, 9, 25
82642892, 36, 0
82660584, 36, 4
82678260, 16, 16
82696988, 9, 1
82713624, 36, 9
82731300, 9, 36
82748980, 1, 49
82766660, 1, 9
82783292, 1, 289
82802016, 1, 1600
82821772, 9, 1024
82841532, 36, 121
82861304, 1, 121
82880024, 9, 16
82897704, 1, 36
82915380, 9, 9
82932020, 64, 36
82950740, 121, 81
82970496, 0, 16
82988168, 16, 841
83007932, 49, 676
83027700, 196, 121
83048508, 25, 121
83068260, 25, 1
83085932, 225, 0
83104668, 36, 4
83122348, 9, 9
83138996, 25, 1
83156652, 0, 49
83174320, 16, 16
83193060, 4, 9
83209700, 4, 0
83226336, 36, 4
83244020, 9, 36
83261712, 1, 1
83278340, 16, 9
83296020, 16, 0
83313696, 16, 36
83332420, 36, 225
83352176, 1, 36
83369856, 4, 4
83386504, 25, 36
83405220, 16, 100
83424968, 0, 81
83442656, 4, 1
83459304, 9, 144
83478008, 49, 225
83497784, 100, 484
83518576, 49, 484
83538348, 16, 361
83558108, 49, 1
83575768, 49, 64
83594508, 144, 9
83613224, 441, 25
83632980, 100, 25
83652748, 36, 144
83672496, 0, 256
83691220, 16, 169
83710972, 1, 121
83729700, 9, 196
83748416, 25, 4
83766096, 4, 289
83784828, 0, 1089
83804576, 16, 256
83824336, 9, 9
83840972, 9, 81
83858668, 16, 49
83877380, 4, 0
83894012, 1, 4
83910664, 1, 16
83928344, 0, 4
83944992, 16, 1
83962656, 144, 49
83982420, 49, 49
84001136, 49, 9
84018824, 169, 9
84037532, 36, 0
84055224, 4, 16
84072896, 0, 9
84089532, 4, 4
84106168, 1, 1
84122820, 64, 25
84141528, 81, 25
84160264, 4, 4
84176900, 1, 1
84193540, 25, 16
84212264, 9, 25
84229940, 1, 81
84247636, 1, 4
84264264, 0, 100
84282984, 9, 36
84300660, 4, 1
84317304, 0, 1
84333948, 1, 9
84350584, 4, 1
84367212, 1, 4
84383860, 4, 0
84400496, 9, 9
84417128, 25, 25
84435860, 25, 225
84455628, 9, 225
84474336, 49, 49
84493056, 36, 4
84510744, 0, 49
84528420, 16, 36
84547136, 4, 4
84563780, 0, 16
84581468, 1, 4
84598092, 0, 0
84614728, 9, 9
84631372, 16, 1
84649060, 25, 36
84667788, 9, 0
84684420, 36, 16
84703128, 1, 25
84720816, 0, 9
84737452, 0, 9
84754100, 1, 49
84771768, 16, 64
84790500, 25, 4
84808168, 4, 0
84824808, 0, 36
84842492, 4, 100
84861228, 9, 16
84878888, 0, 0
84895528, 0, 81
84913232, 0, 324
84931940, 16, 144
84951708, 16, 1
84969372, 0, 9
84986020, 4, 1
85002660, 9, 0
85019292, 0, 4
85035940, 16, 1
85053628, 16, 16
85072332, 0, 4
85088976, 4, 16
85106644, 0, 9
85123300, 0, 0
85139928, 9, 36
85157616, 9, 144
85176348, 9, 16
85194028, 4, 9
85210668, 9, 49
85228336, 9, 25
85246016, 1, 36
85263712, 1, 36
85281376, 9, 0
85298024, 0, 1
85314668, 4, 9
85331300, 4, 36
85348984, 9, 16
85366660, 9, 4
85383304, 9, 0
85399936, 0, 1
85416580, 0, 36
85434260, 4, 1
85450900, 0, 0
85467544, 0, 9
85484180, 1, 16
85501852, 0, 0
85518500, 0, 4
85535144, 9, 4
85551780, 4, 1
85568416, 1, 9
85585060, 9, 36
85602740, 1, 9
85619384, 1, 0
85636008, 9, 4
85652660, 1, 4
85669288, 4, 4
85685932, 9, 4
85702576, 4, 0
85719224, 4, 4
85735856, 0, 1
85752500, 1, 9
85769128, 4, 0
85785780, 4, 1
85802420, 1, 9
85819056, 0, 4
85835684, 0, 25
85853392, 1, 1
85870012, 16, 0
85887692, 0, 0
85904324, 4, 9
85920980, 0, 64
85938656, 1, 49
85956336, 1, 64
85974012, 0, 16
85991700, 1, 1
86008348, 0, 0
86024968, 9, 9
86041624, 16, 100
86061376, 0, 16
86079056, 25, 0
86096740, 16, 1
86114420, 1, 49
86132108, 25, 361
86151848, 81, 900
86171612, 64, 676
86191376, 36, 36
86210088, 16, 25
86228820, 1, 49
86246508, 0, 9
86263148, 0, 1
86279784, 25, 16
86298492, 121, 81
86318260, 64, 25
86336976, 16, 4
86354656, 0, 49
86372332, 0, 256
86391068, 1, 144
86409780, 1, 16
86427460, 4, 9
86444100, 0, 196
86462828, 36, 441
86482568, 64, 64
86501296, 25, 36
86520032, 9, 144
86538740, 9, 49
86556416, 1, 1
86573064, 1, 64
86590752, 1, 1
86607384, 0, 1
86624012, 0, 1
86640660, 0, 0
86657300, 9, 9
86673948, 4, 49
86691616, 1, 16
86709296, 1, 0
86725944, 4, 1
86742576, 1, 16
86760264, 1, 1
86776908, 1, 25
86794592, 4, 4
86811212, 1, 289
86829940, 9, 196
86848672, 16, 1
86866340, 1, 9
86882984, 0, 9
86899616, 0, 36
86917300, 16, 4
86934980, 16, 9
86952648, 0, 9
86969284, 0, 0
86985940, 9, 36
87003620, 4, 81
87021300, 4, 4
87037936, 1, 0
87054584, 0, 1
87071212, 4, 0
87087860, 9, 1
87104496, 4, 1
87121144, 9, 9
87137784, 4, 49
87155464, 4, 25
87173148, 1, 4
87189780, 0, 9
87206416, 9, 16
87224092, 4, 9
87240740, 1, 1
87257380, 1, 9
87274020, 0, 49
87291700, 1, 36
87309388, 16, 9
87327072, 16, 0
87344740, 0, 4
87361372, 0, 1
87378020, 0, 1
87394660, 4, 9
87411300, 9, 16
87428968, 1, 36
87446668, 1, 225
87465376, 16, 36
87484100, 4, 0
87500728, 0, 4
87517380, 4, 4
87534020, 25, 9
87551700, 1, 0
87568340, 1, 1
87584980, 4, 9
87601612, 0, 16
87619292, 4, 0
87635932, 0, 16
87653620, 9, 1
87670260, 9, 64
87687936, 0, 0
87704572, 1, 25
87722260, 1, 1
87738908, 4, 0
87755536, 1, 25
87773220, 0, 49
87790908, 0, 16
87808568, 1, 81
87826264, 16, 400
87846028, 16, 225
87865772, 0, 9
87882416, 4, 9
87899060, 0, 9
87915716, 1, 0
87932336, 1, 256
87951052, 25, 841
87970812, 49, 484
87990580, 81, 81
88009300, 49, 1
88026984, 9, 9
88043628, 1, 25
88061300, 36, 25
88080016, 16, 256
88099772, 9, 25
88117460, 0, 121
88136180, 25, 81
88154900, 1, 0
88171548, 1, 9
88188180, 4, 4
88204832, 4, 0
88221448, 0, 0
88238100, 1, 0
88254736, 1, 0
88271388, 1, 0
88288012, 1, 0
88304656, 0, 4
88321296, 1, 0
88337948, 1, 0
88354584, 16, 1
88372256, 36, 81
88390988, 9, 225
88409688, 4, 81
88427380, 9, 9
88444028, 4, 1
88460668, 4, 0
88477292, 16, 1
88494968, 49, 36
88513708, 1, 4
88530340, 81, 0
88548020, 49, 16
88566728, 81, 324
88586500, 81, 196
88606260, 121, 4
88624972, 64, 16
88643700, 9, 121
88662416, 0, 576
88681140, 25, 529
88700896, 81, 1
88718580, 16, 0
88736264, 4, 64
88753944, 1, 225
88772672, 4, 4
88789300, 16, 25
88808016, 9, 25
88825684, 25, 529
88845460, 9, 961
88864180, 25, 100
88883944, 9, 1
88900568, 0, 9
88917224, 9, 4
88933856, 16, 4
88951540, 36, 169
88971308, 169, 169
88992112, 49, 0
89009784, 4, 4
89026416, 9, 0
89043060, 4, 64
89060748, 4, 0
89077384, 1, 49
89095060, 0, 144
89113780, 0, 256
89132504, 25, 36
89151224, 16, 25
89169948, 1, 64
89187628, 9, 81
89205296, 1, 49
89222976, 4, 289
89241704, 4, 484
89260416, 0, 121
89279132, 0, 0
89295776, 1, 81
89313460, 16, 144
89333208, 36, 0
89350904, 9, 16
89368584, 9, 9
89385236, 49, 9
89402908, 9, 400
89421612, 16, 1369
89442428, 100, 169
89463224, 25, 49
89481940, 16, 144
89501700, 1, 0
89518340, 1, 81
89536020, 16, 1
89553692, 1, 25
89571384, 0, 25
89589068, 1, 0
89605692, 0, 4
89622336, 1, 0
89638988, 4, 1
89655628, 9, 0
89672252, 9, 0
89688900, 4, 9
89705544, 0, 121
89724264, 0, 9
89740892, 0, 4
89757536, 0, 1
89774180, 0, 1
89790828, 1, 1
89807464, 1, 9
89824096, 0, 25
89841780, 1, 49
89859460, 1, 16
89877128, 0, 4
89893776, 1, 9
89910432, 1, 1
89927060, 0, 100
89945780, 4, 144
89964492, 9, 36
89982184, 9, 4
89998820, 4, 0
90015456, 0, 4
90032088, 0, 0
90048740, 0, 0
90065384, 0, 0
90082020, 0, 1
90098652, 0, 0
90115296, 1, 0
90131932, 4, 1
90148572, 1, 0
90165204, 0, 0
90181868, 0, 16
90199536, 0, 9
90216168, 0, 4
90232812, 1, 1
90249456, 0, 0
90266092, 0, 0
90282736, 4, 0
90299376, 1, 1
90316024, 0, 36
90333700, 0, 81
90351376, 9, 16
90369068, 64, 0
90386740, 36, 0
90404408, 484, 9
90423128, 121, 25
90442900, 4, 4
90459540, 36, 9
90477212, 49, 9
90494896, 49, 1
90512580, 400, 4
90531292, 36, 25
90550012, 25, 1
90567712, 36, 1
90585376, 4, 0
90602020, 16, 0
90619700, 4, 0
90636344, 9, 0
90652980, 144, 1
90671700, 49, 1
90689384, 16, 4
90707068, 1, 1
90723708, 81, 4
90741380, 36, 16
90760092, 9, 9
90776736, 4, 0
90793380, 1, 1
90810024, 36, 4
90827692, 49, 0
90845380, 1, 4
90862012, 0, 1
90878664, 0, 1
90895292, 1, 9
90911936, 1, 4
90928576, 1, 0
90945224, 64, 1
90962888, 25, 4
90980588, 4, 4
90997208, 9, 1
91013848, 64, 0
91031532, 64, 0
91049220, 9, 0
91065852, 121, 4
91084572, 36, 1
91102264, 1, 0
91118916, 0, 4
91135544, 9, 0
91152168, 4, 25
91169864, 9, 4
91186516, 0, 4
91203144, 4, 16
91220824, 16, 4
91238504, 9, 1
91255140, 16, 0
91272820, 64, 4
91290500, 1, 16
91308184, 0, 1
91324824, 4, 1
91341460, 36, 4
91359132, 1, 0
91375784, 16, 1
91393460, 64, 0
91411144, 81, 0
91428812, 9, 0
91445460, 0, 9
91462096, 1, 9
91478732, 0, 9
91495368, 36, 9
91513060, 36, 0
91530740, 16, 1
91548420, 121, 0
91567140, 81, 1
91584820, 16, 9
91602500, 25, 4
91620184, 64, 4
91637868, 16, 1
91655552, 0, 4
91672176, 36, 0
91689852, 25, 1
91707540, 0, 0
91724180, 4, 0
91740820, 49, 9
91758488, 36, 4
91776180, 36, 25
91794896, 25, 16
91813620, 0, 0
91830248, 0, 0
91846900, 0, 4
91863536, 16, 1
91881220, 1, 4
91897840, 9, 0
91914500, 9, 1
91931140, 16, 4
91948820, 144, 25
91968588, 25, 16
91987300, 4, 1
92003932, 9, 0
92020584, 0, 0
92037236, 9, 1
92053860, 4, 1
92070492, 0, 4
92087132, 64, 4
92104820, 121, 0
92123540, 25, 4
92141216, 1, 4
92157860, 36, 1
92175540, 144, 4
92194252, 36, 9
92211936, 1, 0
92228572, 16, 0
92246260, 49, 0
92263936, 81, 9
92281624, 25, 1
92299296, 16, 4
92316976, 4, 0
92333608, 0, 4
92350260, 16, 1
92367944, 16, 1
92385620, 36, 0
92403292, 81, 4
92420984, 9, 9
92437620, 0, 1
92454264, 0, 1
92470892, 0, 0
92487540, 9, 1
92504188, 25, 25
92522904, 1, 9
92539532, 36, 16
92558256, 9, 25
92575948, 25, 0
92593620, 64, 1
92611296, 64, 1
92628976, 81, 1
92646668, 1, 0
92663296, 16, 16
92682020, 9, 0
92698664, 4, 9
92715304, 4, 1
92731948, 9, 1
92748580, 225, 25
92768336, 361, 49
92788100, 49, 4
92805780, 0, 1
92822420, 1, 0
92839072, 1, 1
92855696, 1, 9
92872328, 0, 4
92888980, 0, 4
92905616, 9, 0
92922260, 16, 0
92939936, 0, 1
92956576, 36, 9
92974268, 81, 0
92991940, 49, 4
93009612, 9, 1
93026244, 0, 0
93042900, 9, 1
93059544, 49, 0
93077216, 36, 16
93095920, 0, 25
93113620, 1, 0
93130268, 64, 4
93147940, 121, 9
93166664, 9, 4
93183296, 0, 0
93199932, 4, 0
93216572, 1, 1
93233220, 25, 0
93250904, 36, 9
93268572, 121, 16
93288340, 49, 4
93306020, 25, 0
93323700, 25, 0
93341380, 16, 1
93359056, 1, 1
93375704, 25, 0
93393384, 16, 9
93411056, 16, 36
93429776, 64, 16
93448496, 16, 0
93466180, 1, 9
93482812, 9, 1
93499468, 1, 1
93516104, 64, 1
93533772, 144, 9
93552504, 100, 9
93571228, 169, 1
93589936, 81, 9
93607612, 25, 9
93625280, 81, 0
93642980, 64, 4
93660664, 36, 9
93678332, 16, 1
93696020, 9, 0
93712660, 9, 4
93729312, 49, 9
93746980, 4, 1
93763620, 1, 1
93780256, 4, 0
93796896, 9, 0
93813544, 100, 1
93832260, 169, 4
93850988, 4, 9
93867612, 0, 0
93884260, 0, 1
93900900, 0, 4
93917536, 16, 1
93935212, 16, 0
93952900, 4, 0
93969548, 25, 0
93987228, 144, 4
94005932, 36, 4
94023616, 36, 1
94041300, 9, 9
94057936, 36, 0
94075620, 49, 16
94094328, 9, 4
94110980, 0, 0
94127620, 16, 0
94145296, 81, 9
94162980, 25, 16
94181704, 0, 0
94198340, 1, 4
94214980, 0, 0
94231628, 1, 1
94248256, 4, 0
94264892, 0, 9
94281540, 1, 0
94298188, 16, 4
94315860, 1, 0
94332492, 0, 1
94349140, 1, 0
94365784, 0, 0
94382420, 0, 4
94399052, 81, 0
94416740, 144, 9
94435460, 9, 4
94452112, 169, 1
94470828, 1, 4
94487456, 144, 1
94506180, 100, 0
94524904, 36, 4
94542572, 0, 0
94559212, 1, 0
94575876, 9, 1
94592504, 49, 25
94611220, 25, 9
94628904, 36, 0
94646576, 256, 0
94665300, 121, 4
94684028, 25, 0
94701712, 49, 0
94719396, 1, 1
94736024, 0, 0
94752664, 64, 1
94770336, 4, 9
94786976, 0, 0
94803616, 4, 0
94820248, 25, 9
94837940, 81, 4
94855612, 25, 9
94873296, 49, 0
94890972, 169, 0
94909708, 169, 1
94928424, 169, 1
94947132, 36, 0
94964828, 64, 16
94983544, 64, 0
95001216, 0, 4
95017852, 1, 1
95034512, 1, 1
95051152, 25, 1
95068824, 16, 1
95086492, 0, 0
95103140, 1, 4
95119788, 1, 1
95136412, 0, 4
95153056, 1, 4
95169712, 9, 0
95186340, 0, 0
95202972, 16, 1
95220656, 1, 4
95237312, 25, 4
95254984, 4, 1
95271612, 81, 0
95289284, 36, 0
95306984, 16, 0
95324660, 16, 4
95342328, 25, 0
95360028, 0, 0
95376660, 100, 0
95395372, 16, 0
95413056, 9, 1
95429700, 49, 1
95447380, 196, 1
95466096, 4, 1
95482736, 16, 1
95500432, 4, 4
95517068, 16, 1
95534736, 81, 1
95552412, 64, 0
95570112, 49, 1
95587776, 81, 0
95605460, 25, 0
95623136, 169, 16
95642908, 25, 9
95660588, 9, 0
95677216, 16, 9
95694908, 36, 9
95712580, 25, 9
95730260, 4, 9
95746900, 25, 1
95764580, 4, 4
95781220, 4, 1
95797864, 0, 1
95814500, 4, 0
95831140, 4, 0
95847780, 49, 4
95865452, 9, 4
95882100, 1, 0
95898744, 4, 0
95915380, 9, 1
95932008, 0, 9
95948648, 16, 0
95966340, 25, 1
95984020, 9, 1
96000652, 81, 1
96018336, 100, 4
96037060, 4, 4
96053700, 4, 0
96070332, 4, 0
96086976, 1, 1
96103624, 100, 1
96122336, 64, 9
96140024, 36, 1
96157684, 100, 4
96176420, 1, 0
96193068, 16, 1
96210740, 49, 0
96228428, 289, 1
96247136, 100, 4
96265848, 0, 4
96282488, 0, 9
96299144, 4, 1
96315780, 4, 0
96332420, 0, 0
96349052, 0, 0
96365696, 4, 0
96382336, 0, 4
96398980, 25, 1
96416660, 9, 1
96433300, 4, 0
96449952, 4, 0
96466588, 16, 4
96484260, 25, 1
96501952, 9, 1
96518572, 25, 1
96536264, 16, 1
96553936, 25, 4
96571620, 0, 4
96588256, 0, 1
96604900, 36, 0
96622572, 0, 1
96639232, 121, 16
96658988, 36, 36
96677692, 0, 0
96694344, 0, 1
96710980, 100, 0
96729692, 400, 9
96748408, 121, 9
96767140, 0, 4
96783780, 4, 0
96800412, 16, 4
96818092, 25, 4
96835788, 121, 9
96854500, 256, 9
96873212, 64, 4
96890900, 0, 0
96907544, 1, 1
96924192, 25, 0
96941864, 49, 1
96959540, 49, 4
96977220, 49, 0
96994892, 25, 0
97012568, 0, 0
97029220, 36, 0
97046900, 121, 0
97065612, 81, 1
97083292, 25, 1
97100976, 0, 0
97117620, 9, 4
97134256, 36, 0
97151932, 25, 1
97169620, 100, 0
97188332, 144, 4
97207056, 64, 4
97224740, 121, 16
97244500, 64, 25
97263220, 1, 9
97279856, 0, 1
97296504, 64, 4
97314188, 121, 9
97332900, 4, 4
97349536, 1, 1
97366180, 25, 64
97384896, 81, 144
97404652, 100, 25
97424420, 676, 4
97443136, 121, 16
97462888, 4, 0
97479532, 100, 9
97498264, 49, 9
97515948, 64, 1
97533624, 64, 9
97551292, 0, 0
97567948, 1, 1
97584572, 49, 0
97602252, 100, 0
97620964, 25, 0
97638668, 1, 0
97655304, 100, 0
97674024, 256, 1
97692740, 121, 1
97711464, 16, 1
97729136, 9, 1
97745780, 36, 4
97763456, 4, 16
97781148, 49, 9
97798820, 81, 0
97816488, 64, 1
97834184, 100, 4
97852900, 121, 16
97872652, 36, 4
97890340, 1, 0
97906976, 4, 0
97923624, 4, 0
97940260, 9, 1
97956896, 0, 4
97973544, 1, 1
97990188, 1, 0
98006820, 64, 9
98024512, 225, 9
98043224, 100, 9
98061944, 9, 4
98078580, 4, 1
98095220, 121, 0
98113948, 225, 9
98132660, 49, 9
98150336, 1, 1
98166980, 1, 0
98183628, 4, 1
98200268, 0, 0
98216884, 36, 9
98234576, 0, 16
98252252, 36, 0
98269932, 81, 9
98287628, 0, 4
98304268, 36, 1
98321948, 0, 4
98338584, 4, 0
98355220, 64, 1
98372896, 81, 1
98390588, 36, 1
98408256, 0, 1
98424900, 4, 0
98441544, 0, 4
98458180, 0, 4
98474820, 64, 0
98492504, 81, 0
98510176, 9, 1
98526816, 36, 0
98544496, 0, 0
98561136, 9, 0
98577788, 1, 0
98594424, 36, 4
98612104, 9, 16
98629780, 81, 0
98647464, 81, 4
98665136, 1, 0
98681760, 0, 0
98698416, 1, 0
98715056, 1, 4
98731696, 0, 16
98749372, 16, 4
98767056, 49, 4
98784744, 9, 1
98801372, 100, 1
98820088, 25, 4
98837784, 1, 0
98854420, 1, 0
98871060, 25, 4
98888744, 81, 16
98907464, 64, 4
98925132, 361, 25
98944892, 100, 49
98964676, 1, 1
98981296, 64, 0
98998976, 9, 0
99015608, 4, 0
99032264, 144, 1
99050976, 100, 9
99069700, 4, 0
99086332, 16, 4
99104024, 16, 1
99121704, 36, 0
99139380, 25, 0
99157064, 81, 1
99174744, 169, 9
99193456, 144, 1
99212172, 49, 1
99229860, 64, 1
99247544, 64, 0
99265220, 1, 4
99281852, 9, 0
99298500, 0, 1
99315152, 1, 0
99331780, 49, 1
99349448, 36, 1
99367140, 25, 0
99384820, 1, 1
99401464, 121, 0
99420180, 121, 4
99438904, 1, 4
99455532, 16, 0
99473220, 81, 1
99490904, 81, 1
99508580, 25, 0
99526264, 49, 1
99543932, 36, 1
99561620, 1, 0
99578260, 0, 1
99594900, 1, 4
99611548, 16, 1
99629228, 36, 0
99646892, 1, 0
99663536, 1, 0
99680160, 16, 0
99697864, 16, 1
99715532, 225, 0
99734252, 64, 1
99751940, 0, 0
99768588, 100, 0
99787308, 81, 1
99804980, 16, 1
99822668, 16, 4
99840352, 225, 1
99859056, 256, 9
99877776, 169, 1
99896496, 1, 0
99913128, 4, 0
99929772, 4, 1
99946420, 1, 1
99963064, 4, 0
99979700, 49, 1
99997368, 49, 0
100015048, 49, 0
100033780, 100, 0
100053544, 169, 4
100073300, 256, 9
100093060, 256, 16
100113856, 196, 16
100134664, 49, 9
100153380, 9, 1
100171060, 9, 0
100188732, 9, 0
100206420, 1, 0
100224104, 1, 1
100241780, 1, 4
100259452, 4, 1
100277140, 1, 0
100294820, 16, 1
100313544, 36, 0
100332256, 169, 4
100352024, 36, 1
100370740, 9, 0
100388416, 25, 0
100407140, 16, 4
100425860, 4, 9
100443544, 1, 4
100461212, 9, 0
100478888, 0, 1
100496580, 4, 0
100514264, 0, 1
100531944, 0, 16
100550648, 0, 1
100568348, 4, 0
100586028, 49, 4
100604728, 49, 4
100623468, 0, 4
100641148, 64, 1
100659860, 9, 4
100677532, 36, 0
100696272, 100, 4
100716012, 1, 4
100733700, 25, 4
100752420, 144, 169
100774268, 9, 625
100794008, 25, 256
100814812, 25, 784
100835628, 1, 3600
100856420, 144, 1089
100879280, 64, 100
100900096, 49, 144
100920900, 16, 36
100940660, 9, 0
100958344, 9, 1
100976020, 4, 36
100994740, 4, 9
101012416, 4, 1
101030108, 9, 4
101047780, 4, 4
101065452, 1, 1
101083132, 4, 9
101100820, 0, 1
101118508, 4, 1
101136168, 4, 0
101153868, 1, 0
101171548, 4, 0
101189220, 0, 0
101206900, 0, 1
101224576, 0, 0
101242256, 0, 0
101259932, 1, 0
101277608, 0, 0
101295304, 0, 1
101312976, 0, 0
101330656, 1, 0
101348332, 1, 0
101366020, 0, 0
101383712, 0, 1
101401372, 0, 0
101419060, 0, 0
101436736, 0, 0
101454420, 0, 0
101472096, 0, 0
101489780, 0, 0
101507460, 1, 1
101525128, 0, 0
101542808, 1, 0
101560500, 1, 0
101578172, 0, 0
101595848, 0, 0
101613528, 25, 0
101632260, 81, 4
101650976, 36, 9
101669692, 0, 1
101687380, 0, 0
101705056, 0, 0
101722744, 1, 1
101740420, 1, 0
101758112, 0, 1
101775780, 0, 0
101793460, 1, 0
101811136, 0, 0
101828828, 0, 0
101846496, 0, 0
101864172, 0, 0
101881848, 0, 0
101899548, 1, 0
101917220, 0, 0
101934892, 0, 0
101952580, 1, 0
101970260, 0, 0
101987932, 1, 0
102005620, 0, 0
102023296, 0, 0
102040976, 0, 0
102058648, 0, 0
102076336, 1, 0
102094020, 0, 0
102111692, 0, 0
102129372, 0, 0
102147044, 0, 0
102164740, 0, 0
102182420, 0, 0
102200092, 0, 0
102217780, 0, 0
102235464, 0, 0
102253140, 0, 0
102270816, 0, 0
102288500, 0, 0
102306176, 1, 0
102323848, 0, 0
102341528, 1, 0
102359224, 9, 1
102376896, 4, 0
102394584, 0, 0
102412244, 0, 0
102429936, 0, 0
102447624, 1, 0
102465292, 0, 1
102482976, 0, 0
102500660, 0, 0
102518328, 0, 0
102536020, 1, 0
102553712, 0, 1
102571388, 0, 0
102589052, 0, 0
102606732, 0, 0
102624416, 0, 0
102642088, 0, 0
102659768, 0, 0
102677444, 0, 0
102695136, 0, 0
102712820, 0, 0
102730500, 0, 0
102748176, 1, 0
102765860, 1, 0
102783532, 0, 0
102801212, 0, 0
102818900, 0, 0
102836580, 0, 0
102854252, 0, 0
102871932, 0, 0
102889620, 0, 0
102907304, 1, 1
102924968, 0, 0
102942644, 1, 1
102960336, 1, 1
102978012, 1, 0
102995696, 4, 1
103013384, 1, 1
103031068, 1, 0
103048736, 0, 0
103066412, 0, 0
103084100, 0, 0
103101780, 0, 0
103119448, 0, 0
103137132, 0, 1
103154820, 0, 0
103172500, 0, 0
103190172, 0, 0
103207844, 0, 0
103225536, 0, 0
103243212, 0, 0
103260892, 0, 0
103278572, 0, 0
103296256, 1, 0
103313940, 1, 0
103331612, 0, 0
103349300, 0, 0
103366980, 0, 0
103384660, 1, 0
103402328, 0, 0
103420020, 1, 0
103437700, 0, 0
103455376, 1, 0
103473052, 0, 1
103490740, 0, 0
103508416, 0, 1
103526092, 0, 0
103543764, 0, 0
103561472, 0, 1
103579140, 0, 0
103596808, 0, 0
103614504, 0, 1
103632184, 0, 0
103649860, 0, 0
103667540, 0, 0
103685216, 0, 0
103702900, 0, 0
103720572, 0, 0
103738264, 0, 1
103755940, 0, 0
103773624, 1, 0
103791292, 0, 0
103808972, 1, 0
103826660, 0, 4
103844332, 0, 1
103862012, 0, 1
103879700, 1, 0
103897384, 0, 1
103915048, 0, 0
103932732, 0, 0
103950428, 0, 0
103968100, 1, 0
103985768, 4, 0
104003448, 1, 0
104021144, 0, 0
104038832, 0, 0
104056500, 0, 0
104074168, 0, 1
104091872, 1, 0
104109528, 0, 0
104127212, 0, 0
104144884, 0, 0
104162580, 0, 0
104180260, 0, 1
104197932, 0, 0
104215620, 0, 0
104233304, 0, 0
104250984, 0, 0
104268652, 0, 0
104286340, 0, 1
104304020, 1, 0
104321692, 0, 0
104339364, 1, 0
104357056, 0, 0
104374736, 0, 1
104392412, 0, 1
104410084, 0, 0
104427780, 0, 0
104445460, 0, 0
104463128, 0, 0
104480824, 0, 0
104498500, 0, 0
104516180, 0, 0
104533848, 0, 0
104551540, 1, 0
104569220, 0, 4
104586892, 0, 1
104604572, 0, 4
104622260, 0, 4
104639936, 4, 0
104657612, 9, 0
104675292, 4, 0
104692980, 0, 0
104710648, 1, 0
104728332, 9, 1
104746020, 9, 1
104763700, 4, 0
104781372, 0, 1
104799060, 1, 1
104816744, 1, 1
104834420, 4, 0
104852100, 1, 0
104869784, 0, 0
104887472, 0, 1
104905140, 0, 0
104922820, 1, 0
104940496, 0, 0
104958180, 0, 0
104975852, 9, 0
104993540, 4, 0
105011220, 0, 0
105028908, 1, 0
105046572, 0, 0
105064256, 0, 1
105081932, 0, 4
105099620, 0, 1
105117288, 0, 0
105134972, 0, 0
105152660, 0, 0
105170340, 0, 0
105188012, 0, 1
105205684, 4, 1
105223380, 1, 0
105241048, 1, 0
105258732, 1, 0
105276424, 0, 4
105294100, 0, 1
105311776, 4, 0
105329452, 0, 0
105347140, 1, 0
105364820, 4, 1
105382500, 1, 0
105400172, 0, 0
105417860, 1, 1
105435536, 0, 9
105453212, 1, 0
105470888, 9, 1
105488584, 4, 1
105506248, 0, 0
105523940, 9, 0
105541604, 1, 0
105559300, 0, 1
105576988, 0, 0
105594660, 0, 0
105612340, 0, 0
105630028, 1, 0
105647692, 0, 0
105665368, 0, 0
105683056, 0, 0
105700736, 0, 0
105718412, 1, 0
105736088, 0, 0
105753780, 0, 0
105771464, 0, 1
105789132, 0, 1
105806808, 0, 4
105824500, 0, 1
105842172, 0, 0
105859860, 0, 1
105877536, 0, 0
105895220, 0, 1
105912892, 0, 1
105930572, 0, 0
105948260, 0, 1
105965940, 0, 1
105983612, 0, 0
106001292, 0, 0
106018980, 1, 0
106036660, 0, 0
106054332, 0, 1
106072004, 1, 0
106089700, 9, 1
106107380, 1, 0
106125060, 0, 0
106142744, 0, 4
106160420, 0, 4
106178092, 0, 1
106195784, 1, 1
106213460, 0, 0
106231144, 0, 1
106248808, 0, 0
106266500, 0, 0
106284172, 0, 0
106301856, 0, 0
106319532, 0, 0
106337208, 1, 0
106354896, 1, 0
106372568, 0, 0
106390252, 0, 4
106407924, 0, 1
106425616, 0, 0
106443300, 1, 0
106460972, 1, 0
106478660, 1, 0
106496340, 0, 0
106514012, 0, 0
106531688, 0, 0
106549376, 0, 0
106567068, 1, 0
106584728, 0, 0
106602404, 0, 0
106620100, 0, 0
106637772, 0, 0
106655448, 1, 0
106673128, 1, 0
106690820, 0, 0
106708508, 1, 0
106726172, 0, 0
106743860, 0, 0
106761540, 0, 0
106779208, 0, 0
106796892, 0, 0
106814580, 0, 0
106832256, 0, 0
106849928, 0, 0
106867608, 1, 0
106885300, 1, 1
106902980, 0, 0
106920652, 0, 0
106938332, 1, 0
106956016, 0, 0
106973692, 0, 0
106991372, 0, 1
107009060, 0, 0
107026740, 0, 0
107044412, 0, 0
107062092, 0, 0
107079788, 1, 0
107097464, 4, 1
107115132, 4, 1
107132824, 1, 1
107150496, 0, 0
107168172, 0, 0
107185852, 1, 0
107203528, 0, 1
107221220, 0, 0
107238892, 0, 1
107256572, 0, 4
107274264, 0, 1
107291940, 0, 0
107309612, 0, 0
107327292, 0, 0
107344980, 1, 0
107362668, 1, 0
107380328, 0, 0
107398012, 0, 0
107415700, 0, 0
107433380, 0, 0
107451048, 0, 0
107468724, 0, 0
107486420, 0, 0
107504088, 0, 0
107521772, 0, 0
107539448, 0, 0
107557140, 0, 0
107574820, 4, 0
107592492, 9, 0
107610176, 0, 0
107627860, 0, 0
107645528, 0, 0
107663208, 1, 0
107680896, 1, 0
107698580, 0, 0
107716252, 0, 0
107733924, 0, 0
107751616, 0, 0
107769292, 0, 1
107786968, 0, 0
107804644, 0, 0
107822336, 0, 0
107840020, 0, 1
107857692, 0, 0
107875380, 0, 0
107893068, 1, 0
107910732, 1, 0
107928412, 0, 0
107946100, 0, 1
107963780, 4, 1
107981456, 1, 0
107999128, 0, 0
108016820, 0, 0
108034500, 0, 0
108052180, 0, 0
108069848, 0, 1
108087540, 0, 0
108105216, 0, 1
108122900, 0, 0
108140576, 0, 0
108158256, 0, 0
108175940, 0, 0
108193620, 0, 0
108211300, 0, 0
108228980, 0, 1
108246660, 0, 0
108264340, 0, 0
108282028, 0, 0
108299700, 0, 0
108317380, 0, 0
108335044, 0, 0
108352736, 1, 0
108370408, 1, 0
108388100, 1, 0
108405784, 0, 1
108423460, 0, 0
108441132, 0, 1
108458816, 0, 0
108476508, 1, 0
108494188, 1, 0
108511852, 1, 0
108529532, 0, 0
108547216, 1, 0
108564896, 0, 0
108582572, 0, 0
108600244, 0, 0
108617936, 0, 0
108635612, 0, 0
108653300, 0, 1
108670964, 0, 0
108688660, 0, 1
108706336, 0, 0
108724012, 0, 0
108741700, 0, 0
108759380, 0, 0
108777064, 0, 0
108794732, 0, 0
108812420, 0, 0
108830096, 1, 0
108847776, 0, 4
108865452, 1, 0
108883136, 0, 0
108900816, 0, 0
108918496, 0, 0
108936164, 0, 0
108953856, 0, 0
108971540, 0, 0
108989212, 0, 0
109006900, 0, 0
109024580, 1, 1
109042248, 0, 0
109059936, 0, 0
109077616, 0, 0
109095300, 0, 0
109112984, 0, 1
109130652, 0, 0
109148340, 0, 0
109166012, 0, 0
109183688, 0, 0
109201364, 0, 1
109219060, 0, 1
109236728, 0, 0
109254412, 0, 1
109272100, 0, 0
109289780, 0, 0
109307460, 1, 0
109325128, 0, 0
109342816, 0, 0
109360500, 0, 0
109378172, 0, 0
109395852, 0, 0
109413540, 0, 0
109431208, 0, 0
109448888, 0, 0
109466564, 1, 0
109484260, 0, 0
109501928, 0, 0
109519612, 0, 0
109537300, 0, 1
109554976, 0, 0
109572664, 1, 1
109590332, 0, 0
109608016, 4, 0
109625708, 1, 0
109643372, 0, 1
109661048, 0, 0
109678740, 0, 0
109696420, 1, 0
109714088, 0, 0
109731772, 0, 0
109749460, 0, 0
109767132, 0, 0
109784816, 1, 0
109802484, 4, 0
109820180, 1, 0
109837860, 0, 0
109855532, 0, 0
109873220, 0, 0
109890900, 0, 0
109908572, 1, 0
109926252, 1, 0
109943940, 0, 0
109961620, 0, 0
109979288, 0, 0
109996972, 0, 0
110014660, 1, 0
110032332, 0, 1
110050012, 0, 0
110067688, 0, 1
110085380, 0, 0
110103060, 0, 0
110120736, 0, 1
110138408, 0, 0
110156100, 0, 0
110173780, 1, 0
110191448, 1, 0
110209140, 1, 0
110226820, 0, 0
110244492, 0, 0
110262172, 0, 0
110279856, 0, 0
110297528, 0, 0
110315212, 0, 0
110332888, 1, 0
110350580, 1, 0
110368248, 0, 0
110385940, 1, 0
110403628, 1, 0
110421300, 1, 0
110438976, 0, 0
110456652, 0, 0
110474344, 0, 1
110492020, 0, 0
110509692, 0, 0
110527380, 0, 0
110545068, 1, 0
110562744, 0, 1
110580412, 0, 1
110598080, 0, 0
110615780, 0, 1
110633452, 0, 0
110651132, 0, 0
110668820, 0, 0
110686496, 1, 0
110704172, 0, 0
110721852, 0, 0
110739536, 0, 0
110757220, 0, 1
110774888, 1, 0
110792576, 1, 0
110810260, 0, 0
110827936, 1, 0
110845620, 1, 0
110863288, 0, 1
110880980, 0, 1
110898664, 1, 1
110916328, 0, 0
110934004, 1, 0
110951704, 0, 0
110969384, 0, 1
110987048, 0, 0
111004748, 4, 0
111022428, 1, 0
111040096, 1, 0
111057768, 0, 0
111075456, 0, 0
111093140, 0, 0
111110808, 0, 0
111128496, 1, 0
111146192, 0, 0
111163860, 0, 0
111181536, 1, 0
111199204, 0, 0
111216896, 1, 0
111234580, 0, 0
111252252, 0, 1
111269940, 0, 0
111287620, 0, 0
111305288, 0, 0
111322968, 0, 0
111340660, 0, 0
111358344, 0, 4
111376020, 0, 0
111393692, 0, 0
111411380, 1, 0
111429052, 0, 1
111446732, 0, 0
111464404, 0, 0
111482096, 0, 0
111499768, 0, 0
111517448, 0, 0
111535140, 0, 0
111552816, 1, 0
111570492, 0, 0
111588172, 0, 0
111605860, 0, 0
111623540, 1, 0
111641220, 1, 0
111658892, 0, 0
111676576, 0, 0
111694248, 0, 0
111711936, 1, 0
111729604, 0, 0
111747304, 0, 0
111764972, 0, 0
111782652, 0, 1
111800344, 0, 1
111818016, 0, 0
111835688, 0, 0
111853368, 4, 0
111871060, 4, 0
111888740, 0, 0
111906408, 0, 0
111924092, 0, 0
111941780, 1, 0
111959456, 1, 0
111977132, 0, 0
111994804, 0, 0
112012504, 0, 0
112030180, 0, 0
112047852, 0, 0
112065524, 0, 0
112083220, 0, 4
112100904, 1, 0
112118572, 1, 0
112136260, 0, 0
112153940, 0, 0
112171608, 1, 0
112189300, 1, 1
112206976, 0, 0
112224660, 1, 0
112242340, 1, 0
112260004, 0, 0
112277700, 0, 0
112295372, 0, 0
112313064, 1, 0
112330720, 0, 0
112348420, 1, 0
112366100, 0, 0
112383780, 0, 0
112401460, 0, 0
112419140, 4, 0
112436820, 1, 0
112454492, 0, 0
112472180, 0, 1
112489860, 0, 0
112507528, 0, 0
112525208, 0, 0
112542896, 0, 0
112560568, 1, 0
112578252, 0, 0
112595924, 1, 0
112613616, 0, 0
112631304, 1, 0
112648980, 0, 0
112666660, 0, 0
112684340, 0, 0
112702016, 0, 1
112719692, 0, 0
112737376, 0, 0
112755072, 1, 0
112772740, 1, 0
112790424, 0, 0
112808100, 0, 0
112825772, 0, 0
112843448, 1, 0
112861132, 0, 0
112878832, 0, 1
112896492, 0, 0
112914172, 0, 0
112931860, 0, 0
112949536, 0, 0
112967208, 0, 0
112984900, 0, 0
113002584, 0, 1
113020260, 0, 0
113037944, 0, 0
113055620, 0, 0
113073296, 0, 0
113090980, 1, 1
113108656, 1, 1
113126332, 0, 0
113144016, 0, 0
113161692, 0, 0
113179384, 1, 1
113197048, 4, 1
113214740, 1, 1
113232420, 0, 0
113250096, 0, 1
113267780, 0, 0
113285456, 0, 0
113303128, 0, 0
113320812, 0, 0
113338500, 0, 0
113356180, 0, 0
113373852, 0, 0
113391524, 1, 0
113409224, 0, 1
113426892, 0, 1
113444568, 0, 0
113462244, 0, 0
113479940, 0, 0
113497620, 0, 0
113515304, 0, 1
113532980, 0, 0
113550660, 1, 0
113568332, 0, 1
113586012, 0, 1
113603696, 0, 0
113621376, 0, 0
113639060, 1, 0
113656736, 1, 0
113674420, 1, 0
113692096, 0, 0
113709772, 0, 1
113727444, 0, 0
113745140, 0, 0
113762820, 0, 0
113780492, 0, 0
113798176, 1, 0
113815860, 0, 0
113833532, 0, 0
113851208, 1, 0
113868908, 1, 0
113886580, 0, 0
113904252, 0, 0
113921932, 1, 4
113939620, 1, 1
113957304, 0, 1
113974980, 0, 0
113992648, 0, 0
114010340, 0, 0
114028012, 0, 0
114045688, 0, 0
114063380, 0, 0
114081068, 1, 0
114098728, 0, 0
114116416, 0, 1
114134096, 0, 0
114151768, 0, 0
114169452, 1, 0
114187132, 0, 0
114204820, 0, 1
114222500, 0, 0
114240172, 0, 0
114257844, 1, 0
114275536, 0, 0
114293212, 0, 0
114310892, 0, 0
114328576, 0, 0
114346260, 0, 0
114363936, 0, 0
114381608, 1, 0
114399300, 0, 0
114416980, 0, 0
114434660, 0, 0
114452332, 0, 0
114470016, 0, 0
114487700, 0, 0
114505372, 0, 0
114523044, 0, 0
114540740, 0, 0
114558420, 1, 1
114576092, 0, 0
114593764, 0, 1
114611464, 0, 1
114629136, 0, 0
114646812, 0, 0
114664500, 0, 1
114682180, 0, 0
114699852, 1, 0
114717528, 0, 0
114735216, 4, 0
114752900, 1, 0
114770584, 0, 0
114788248, 0, 0
114805940, 0, 0
114823620, 0, 0
114841288, 0, 0
114858964, 0, 0
114876660, 0, 0
114894340, 0, 0
114912016, 0, 1
114929696, 0, 0
114947376, 0, 0
114965060, 0, 0
114982736, 1, 0
115000420, 1, 1
115018104, 1, 4
115035772, 0, 1
115053452, 0, 0
115071140, 0, 0
115088820, 0, 0
115106488, 0, 0
115124168, 0, 1
115141860, 0, 0
115159528, 0, 0
115177216, 0, 0
115194900, 0, 0
115212576, 0, 0
115230252, 0, 0
115247932, 0, 0
115265616, 0, 0
115283308, 1, 0
115300968, 0, 0
115318652, 0, 0
115336340, 0, 0
115354020, 0, 0
115371700, 0, 0
115389372, 1, 0
115407060, 1, 0
115424732, 0, 0
115442412, 0, 0
115460084, 0, 0
115477776, 1, 0
115495460, 0, 0
115513140, 0, 1
115530820, 0, 0
115548500, 0, 0
115566172, 0, 0
115583852, 0, 0
115601540, 0, 0
115619220, 0, 0
115636892, 0, 0
115654564, 0, 0
115672256, 1, 0
115689944, 1, 0
115707620, 0, 0
115725284, 0, 0
115742980, 4, 0
115760660, 4, 0
115778328, 1, 0
115796016, 1, 0
115813696, 0, 0
115831380, 0, 0
115849060, 0, 0
115866740, 0, 1
115884420, 1, 0
115902092, 4, 0
115919772, 4, 4
115937468, 1, 0
115955140, 0, 0
115972812, 0, 1
115990488, 0, 1
116008180, 0, 1
116025860, 0, 0
116043540, 0, 0
116061224, 0, 1
116078908, 0, 0
116096580, 0, 0
116114252, 0, 1
116131940, 1, 1
116149620, 4, 0
116167304, 0, 0
116184980, 0, 0
116202660, 0, 0
116220332, 1, 0
116238012, 0, 1
116255680, 0, 0
116273380, 0, 0
116291052, 1, 0
116308728, 0, 0
116326420, 0, 0
116344108, 1, 0
116361768, 4, 0
116379460, 1, 0
116397140, 0, 0
116414816, 0, 0
116432492, 0, 1
116450172, 0, 1
116467856, 0, 0
116485544, 0, 1
116503220, 0, 0
116520892, 0, 0
116538580, 0, 0
116556252, 0, 0
116573940, 0, 0
116591604, 0, 0
116609296, 0, 0
116626980, 0, 0
116644652, 0, 0
116662336, 0, 0
116680020, 1, 0
116697704, 0, 0
116715380, 0, 0
116733060, 0, 0
116750740, 0, 0
116768408, 1, 0
116786084, 0, 0
116803776, 0, 0
116821448, 0, 0
116839128, 0, 0
116856804, 0, 0
116874500, 0, 0
116892184, 1, 0
116909848, 0, 0
116927536, 0, 0
116945220, 0, 0
116962888, 0, 0
116980572, 0, 0
116998260, 1, 0
117015940, 0, 0
117033616, 0, 1
117051288, 0, 0
117068980, 0, 0
117086652, 0, 0
117104340, 0, 0
117122004, 0, 0
117139700, 0, 1
117157368, 0, 0
117175048, 0, 0
117192740, 0, 0
117210420, 0, 1
117228092, 0, 0
117245772, 0, 0
117263460, 0, 1
117281140, 1, 0
117298808, 0, 0
117316492, 0, 0
117334188, 1, 0
117351856, 1, 0
117369536, 1, 0
117387216, 1, 0
117404896, 0, 0
117422572, 0, 1
117440252, 0, 0
117457936, 0, 0
117475620, 0, 0
117493292, 0, 0
117510976, 0, 0
117528660, 0, 0
117546340, 0, 1
117564012, 0, 0
117581700, 0, 0
117599380, 0, 0
117617060, 0, 0
117634740, 0, 0
117652400, 1, 0
117670096, 1, 0
117687772, 0, 0
117705448, 1, 0
117723124, 1, 0
117740816, 0, 0
117758504, 0, 0
117776172, 0, 1
117793864, 0, 0
117811540, 0, 0
117829212, 0, 0
117846888, 0, 0
117864576, 0, 0
117882256, 0, 0
117899932, 0, 0
117917604, 0, 0
117935296, 0, 0
117952980, 1, 0
117970656, 0, 0
117988328, 0, 0
118006020, 0, 0
118023704, 0, 1
118041372, 0, 0
118059060, 0, 0
118076740, 0, 1
118094420, 0, 0
118112100, 1, 0
118129780, 0, 0
118147460, 1, 0
118165128, 0, 0
118182812, 4, 0
118200508, 1, 0
118218172, 0, 0
118235848, 0, 0
118253528, 0, 0
118271228, 1, 0
118288892, 0, 1
118306576, 0, 1
118324260, 0, 0
118341940, 0, 0
118359608, 0, 0
118377300, 1, 0
118394976, 0, 0
118412660, 0, 0
118430332, 0, 0
118448012, 0, 0
118465696, 0, 0
118483372, 0, 0
118501052, 0, 0
118518724, 0, 0
118536420, 0, 0
118554092, 1, 0
118571780, 0, 0
118589464, 0, 0
118607136, 1, 0
118624812, 1, 0
118642488, 0, 0
118660180, 1, 0
118677856, 0, 0
118695528, 4, 0
118713212, 1, 0
118730896, 0, 0
118748576, 4, 0
118766252, 0, 0
118783924, 0, 0
118801620, 0, 0
118819292, 0, 0
118836980, 0, 0
118854644, 0, 0
118872336, 0, 0
118890028, 0, 4
118907692, 0, 0
118925376, 1, 0
118943060, 1, 0
118960740, 0, 0
118978412, 0, 0
118996100, 0, 0
119013780, 0, 0
119031452, 0, 0
119049136, 0, 0
119066820, 0, 0
119084492, 0, 1
119102172, 0, 0
119119848, 1, 0
119137540, 0, 0
119155220, 0, 0
119172892, 0, 0
119190584, 0, 0
119208268, 0, 0
119225944, 0, 1
119243612, 0, 0
119261296, 0, 0
119278980, 0, 0
119296652, 0, 0
119314332, 0, 0
119332016, 0, 0
119349704, 0, 0
119367380, 0, 0
119385052, 0, 0
119402740, 0, 0
119420412, 0, 1
119438092, 0, 0
119455780, 0, 0
119473460, 0, 0
119491132, 0, 0
119508812, 0, 0
119526500, 0, 1
119544176, 0, 0
119561848, 0, 0
119579532, 0, 0
119597220, 1, 0
119614892, 9, 1
119632584, 1, 1
119650252, 1, 0
119667936, 0, 0
119685612, 0, 0
119703304, 1, 0
119720976, 0, 0
119738660, 0, 1
119756332, 0, 0
119774008, 0, 0
119791696, 1, 0
119809380, 1, 0
119827052, 1, 0
119844740, 0, 0
119862432, 1, 1
119880100, 4, 1
119897780, 4, 0
119915456, 1, 0
119933148, 0, 0
119950816, 0, 0
119968488, 1, 0
119986172, 1, 0
120003856, 1, 0
120021548, 1, 0
120039208, 0, 1
120056900, 0, 0
120074580, 1, 1
120092252, 0, 0
120109928, 0, 0
120127624, 0, 1
120145300, 0, 0
120162976, 0, 0
120180648, 0, 1
120198336, 0, 0
120216012, 0, 1
120233692, 0, 0
120251364, 0, 0
120269056, 0, 0
120286748, 1, 0
120304408, 0, 0
120322096, 0, 0
120339776, 0, 0
120357448, 1, 0
120375144, 1, 0
120392816, 0, 0
120410500, 0, 1
120428168, 0, 0
120445852, 1, 0
120463548, 0, 0
120481220, 0, 0
120498896, 0, 0
120516564, 0, 0
120534264, 0, 0
120551932, 0, 0
120569616, 1, 0
120587300, 0, 0
120604980, 1, 0
120622652, 1, 1
120640332, 0, 0
120658016, 0, 0
120675700, 0, 4
120693372, 1, 1
120711052, 4, 0
120728736, 0, 0
120746420, 100, 1
120766184, 361, 0
120785952, 169, 1
120805700, 144, 0
120825468, 16, 0
120844172, 49, 9
120862900, 9, 1
120880588, 16, 169
120901376, 121, 121
120923224, 36, 9
120941952, 0, 0
120959624, 36, 4
120978340, 0, 1
120996016, 324, 0
121015780, 196, 9
121035536, 121, 0
121055308, 324, 0
121075056, 1, 0
121092732, 676, 16
121113528, 1521, 81
121135380, 961, 81
121156188, 16, 9
121174884, 676, 81
121195696, 324, 16
121216500, 0, 1
121234192, 16, 0
121252900, 49, 9
121271620, 100, 36
121292420, 100, 49
121313216, 529, 9
121332980, 196, 36
121353780, 4, 4
121371456, 4, 1
121389144, 729, 1
121408904, 784, 16
121429688, 1681, 49
121451532, 2304, 100
121474408, 900, 81
121495204, 13689, 225
121519140, 14161, 1024
121544092, 625, 121
121565936, 121, 4
121585676, 1849, 361
121608576, 7056, 441
121631464, 2401, 49
121653296, 225, 25
121674100, 400, 4
121693860, 441, 0
121713604, 64, 9
121732348, 2116, 1
121753128, 1296, 121
121776020, 9, 16
121794748, 1, 4
121812408, 1225, 169
121835280, 1521, 324
121858180, 256, 49
121878972, 16, 0
121897688, 81, 36
121917432, 1369, 100
121940340, 49, 289
121961124, 961, 9
121980900, 5625, 196
122003780, 2025, 196
122026656, 121, 144
122048488, 1156, 64
122070348, 2116, 16
122092172, 9, 100
122111932, 1296, 9
122132744, 625, 289
122154564, 576, 1
122174336, 36, 225
122195120, 25281, 289
122219040, 0, 2116
122239844, 8836, 676
122262736, 361, 81
122283552, 2025, 1
122304328, 11449, 729
122328248, 17956, 1089
122353200, 18496, 289
122377128, 10201, 729
122401068, 64, 441
122421864, 1681, 441
122444712, 2500, 121
122467608, 6561, 625
122490484, 3364, 196
122513352, 1296, 16
122535228, 1600, 196
122558100, 81, 1
122576792, 0, 324
122596572, 16129, 3136
122621524, 16641, 49
122644408, 13456, 3364
122669388, 784, 36
122690168, 2500, 1
122710960, 12544, 64
122733848, 1681, 576
122756712, 900, 36
122777516, 2704, 441
122800404, 1849, 25
122822240, 625, 16
122843036, 484, 196
122864892, 3364, 225
122887772, 1, 1
122905452, 7225, 64
122927300, 400, 9
122947060, 625, 49
122967856, 6724, 49
122989680, 0, 1156
123010476, 11881, 1225
123035464, 625, 36
123056264, 3249, 64
123078092, 2401, 100
123100968, 1764, 196
123123864, 961, 64
123144652, 196, 4
123164416, 3600, 36
123186252, 1849, 64
123208088, 2601, 81
123229928, 4096, 256
123252812, 1156, 9
123273612, 24964, 841
123297536, 22500, 1444
123322496, 2809, 441
123345380, 256, 64
123366184, 2704, 4
123386976, 1849, 144
123409856, 1089, 9
123430648, 6724, 4
123451460, 14641, 729
123475372, 5329, 729
123498260, 36, 0
123516988, 9, 9
123534664, 1521, 144
123557544, 361, 16
123578332, 121, 25
123599140, 529, 25
123619940, 1936, 81
123641772, 400, 0
123661552, 100, 1
123681300, 0, 16
123700008, 2304, 4
123720816, 5776, 225
123743696, 4096, 576
123766556, 2304, 121
123789456, 1024, 9
123810240, 100, 49
123831056, 961, 9
123850820, 7744, 144
123873696, 961, 121
123895528, 6561, 441
123918408, 4489, 25
123940248, 1600, 729
123963124, 0, 81
123981844, 2916, 0
124002636, 9409, 1024
124026568, 15625, 81
124049456, 8649, 64
124071288, 18769, 1444
124096232, 10816, 1600
124121208, 4, 1
124138892, 225, 4
124158648, 1849, 400
124181532, 841, 1
124201292, 900, 4
124221028, 7225, 1156
124244960, 5184, 576
124267852, 400, 1
124287628, 1156, 100
124310476, 1764, 361
124333376, 729, 1
124353120, 3025, 1
124373908, 4356, 0
124394732, 9, 144
124414508, 841, 49
124435280, 4900, 100
124458168, 4356, 361
124481076, 4, 225
124500816, 1681, 36
124522652, 289, 16
124543444, 5625, 400
124566320, 8464, 289
124589220, 6889, 121
124612096, 529, 225
124633936, 2500, 9
124654732, 4900, 324
124677600, 6724, 121
124700504, 3364, 121
124723388, 121, 100
124745212, 2209, 64
124767048, 1600, 100
124789928, 2116, 49
124811772, 2401, 289
124834656, 144, 256
124856508, 100, 4
124876248, 1225, 36
124898080, 4624, 64
124919928, 2704, 289
124942808, 1681, 225
124965680, 3844, 196
124988572, 6724, 676
125011456, 1764, 484
125034336, 121, 0
125054104, 1764, 36
125075940, 1936, 25
125097780, 441, 121
125119624, 576, 49
125140412, 2304, 49
125162256, 1936, 144
125185128, 1369, 64
125206968, 576, 16
125227764, 576, 0
125247548, 169, 36
125268328, 3025, 1
125289132, 2704, 256
125312024, 9, 36
125330744, 100, 16
125351544, 144, 0
125371280, 169, 16
125392092, 2809, 4
125412912, 1024, 225
125435776, 676, 4
125455544, 100, 16
125476340, 484, 144
125498184, 729, 1
125517948, 1296, 81
125539772, 1296, 81
125561612, 0, 25
125580340, 484, 36
125601148, 4, 25
125619864, 324, 9
125639616, 121, 25
125660428, 64, 4
125679140, 121, 4
125698876, 10404, 169
125722804, 25281, 961
125746728, 11664, 1024
125771684, 1600, 256
125794588, 729, 81
125815372, 169, 36
125836168, 81, 9
125854912, 100, 1
125874648, 400, 64
125895444, 289, 64
125916248, 100, 4
125936024, 100, 1
125955784, 36, 81
125975540, 121, 1
125995312, 484, 1
126015064, 100, 81
126035848, 0, 0
126053524, 1225, 16
126075380, 1849, 36
126097200, 1024, 64
126119052, 2401, 64
126140900, 196, 81
126161680, 6084, 81
126183532, 7225, 361
126206412, 9, 4
126224096, 324, 36
126244908, 196, 25
126265712, 36, 1
126284412, 0, 16
126303132, 400, 25
126323944, 2809, 4
126344740, 7744, 400
126367616, 9604, 324
126390496, 1681, 121
126413372, 529, 4
126433124, 1089, 64
126454968, 5329, 225
126477860, 8100, 441
126500728, 625, 169
126522584, 0, 0
126540268, 16, 1
126558984, 9, 1
126576668, 81, 49
126596428, 9, 0
126614100, 100, 1
126633860, 0, 16
126652580, 441, 4
126672340, 16, 16
126692084, 2209, 36
126713924, 4761, 196
126736812, 64, 16
126756560, 1849, 81
126778416, 676, 1
126798184, 1156, 169
126821060, 25, 0
126839752, 1764, 64
126861620, 3600, 676
126884480, 900, 25
126905292, 961, 16
126926088, 196, 121
126947928, 2304, 49
126969764, 169, 289
126991604, 1225, 16
127013448, 4489, 100
127036332, 2025, 529
127059216, 9, 4
127076892, 3249, 144
127099768, 3364, 49
127121616, 121, 100
127143468, 4, 64
127162180, 36, 1
127180892, 625, 1
127200664, 4356, 16
127222500, 1936, 169
127245392, 49, 81
127265156, 49, 0
127283860, 784, 4
127303608, 289, 36
127324424, 121, 1
127344176, 121, 4
127363948, 676, 9
127383700, 3025, 64
127405532, 2500, 289
127428416, 784, 100
127450264, 225, 81
127471044, 1849, 144
127493928, 5184, 100
127516820, 1600, 81
127538660, 16, 9
127557372, 16, 4
127576096, 1936, 9
127596896, 4761, 289
127619768, 324, 144
127641628, 324, 16
127662416, 81, 1
127681120, 1600, 4
127701916, 6561, 441
127724828, 2116, 289
127747696, 9, 16
127766420, 0, 0
127784100, 16, 25
127803856, 625, 100
127825692, 841, 121
127847548, 16, 4
127866276, 1, 0
127883940, 1296, 100
127906816, 3025, 121
127929692, 1024, 81
127951536, 4, 49
127970260, 484, 16
127991048, 3249, 225
128013932, 7569, 324
128036804, 2025, 225
128059704, 25, 25
128079456, 196, 4
128099220, 361, 9
128118980, 196, 25
128139780, 121, 25
128160576, 361, 9
128180344, 324, 16
128201136, 961, 25
128221936, 2025, 64
128243776, 3025, 144
128266656, 729, 81
128287448, 9, 4
128305128, 289, 1
128324908, 1, 16
128343616, 9, 25
128362340, 81, 9
128381060, 289, 0
128400804, 2025, 0
128421608, 5776, 225
128444488, 225, 196
128466348, 2116, 49
128488184, 1225, 49
128510024, 484, 1
128529772, 1024, 121
128552652, 36, 81
128572416, 121, 121
128594244, 1225, 1
128615044, 3844, 361
128637928, 1089, 49
128659792, 4, 16
128678504, 1, 16
128697208, 841, 9
128716980, 2304, 16
128738808, 289, 81
128759612, 2809, 25
128781444, 1936, 169
128804328, 2209, 25
128826172, 49, 49
128845944, 25, 4
128864652, 1444, 25
128886488, 5184, 324
128909380, 441, 196
128931220, 1369, 49
128953056, 2809, 144
128975940, 225, 16
128996732, 8836, 121
129019612, 10201, 625
129043528, 11881, 625
129067444, 31329, 1156
129092408, 32761, 1849
129117380, 5476, 900
129140256, 1764, 0
129161032, 11236, 256
129184976, 4225, 324
129207852, 36, 25
129227620, 484, 16
129248428, 576, 1
129268180, 289, 25
129288968, 841, 25
129309772, 2304, 64
129331616, 841, 9
129351372, 6889, 324
129374260, 3136, 256
129397136, 4, 4
129414812, 1849, 0
129435612, 841, 9
129455368, 961, 4
129475132, 2601, 400
129498012, 64, 100
129518828, 100, 81
129539620, 2916, 64
129561448, 7744, 324
129584320, 2809, 484
129607208, 484, 49
129628008, 361, 9
129647780, 324, 36
129668572, 25, 25
129688324, 3844, 144
129711224, 10816, 625
129735128, 961, 225
129756976, 2209, 36
129778824, 484, 49
129799616, 16, 4
129818340, 196, 25
129839140, 0, 25
129857856, 81, 36
129877600, 2304, 9
129898396, 961, 49
129919220, 3136, 36
129941052, 2025, 144
129963940, 0, 16
129982648, 2601, 100
130005544, 10404, 256
130029444, 4356, 256
130052324, 25, 4
130071048, 4761, 196
130093928, 4624, 361
130116808, 5329, 289
130139680, 5929, 576
130162568, 324, 441
130184428, 361, 4
130204188, 676, 100
130226016, 121, 64
130246824, 9, 25
130265544, 900, 0
130285300, 1024, 9
130306108, 49, 64
130325864, 36, 4
130344572, 2401, 16
130366408, 4356, 225
130389300, 361, 121
130411144, 100, 16
130431936, 676, 25
130452744, 1681, 49
130474568, 144, 196
130496408, 784, 0
130516180, 361, 49
130536992, 1, 9
130554660, 64, 9
130573376, 100, 0
130593124, 100, 16
130613932, 1521, 49
130635772, 576, 25
130656576, 0, 1
130674256, 225, 25
130695052, 144, 36
130715856, 3136, 121
130738740, 625, 121
130760572, 100, 25
130781376, 64, 0
130800096, 1, 64
130818820, 64, 36
130838592, 1, 25
130857300, 4, 16
130876008, 576, 1
130895768, 1156, 1
130916580, 9, 81
130935292, 100, 9
130955064, 36, 1
130973788, 4, 1
130991468, 49, 16
131011216, 9, 9
131028900, 1, 1
131046588, 100, 9
131066332, 49, 25
131086100, 1, 4
131103784, 1, 0
131121464, 4, 0
131139148, 25, 0
131157856, 16, 0
131176584, 4, 1
131194268, 9, 0
131211936, 1, 1
131229616, 100, 4
131249384, 121, 0
131269152, 256, 144
131290984, 1, 100
131310744, 25, 9
131329456, 49, 0
131348180, 36, 9
131366896, 49, 0
131385632, 81, 0
131404344, 64, 0
131423060, 4, 4
131440744, 100, 1
131460500, 289, 16
131481288, 100, 0
131501048, 16, 1
131519788, 64, 9
131538508, 121, 1
131558252, 36, 9
131576980, 0, 9
131594664, 0, 1
131612336, 0, 0
131630020, 9, 1
131647700, 64, 1
131666420, 100, 9
131686180, 64, 9
131704900, 81, 0
131723620, 81, 4
131742344, 1, 0
131760020, 1, 16
131778744, 64, 25
131798492, 121, 36
131819300, 16, 36
131839068, 0, 9
131856748, 4, 1
131874420, 1, 1
131892096, 121, 16
131912900, 400, 0
131932652, 100, 9
131952424, 1, 1
131970104, 9, 1
131987780, 144, 49
132008584, 49, 4
132027296, 100, 16
132048104, 100, 16
132068908, 1, 4
132086576, 0, 0
132104260, 0, 0
132121948, 4, 0
132139624, 1, 1
132157296, 1, 0
132174988, 0, 4
132192664, 16, 1
132211376, 484, 9
132231132, 225, 16
132251936, 4, 25
132270660, 225, 4
