Timestamp (micros),Sensor1 (mV),Sensor2 (mV),Label
53816,4900,4356,6
56048,1296,81,6
58184,225,49,6
60280,2601,196,6
78336,1,324,6
93932,25,1,6
108492,324,361,6
127212,6400,64,6
145936,7569,256,6
165692,4356,361,6
185456,4356,64,6
204180,1681,1,6
221860,81,25,6
238492,0,4,6
253068,225,25,6
270740,81,4,6
286344,1156,25,6
305052,1369,25,6
323776,1764,196,6
343540,361,576,6
362268,81,81,6
378900,1521,49,6
397624,1296,100,6
417380,25,25,6
434024,16,4,6
449620,9,4,6
464180,49,49,6
480816,1024,1,6
498492,15625,625,6
519284,23409,1089,6
541132,625,144,6
559844,3364,64,6
578584,1296,1,6
596252,1521,9,6
613924,5184,196,6
633684,256,400,6
652428,225,4,6
669052,144,36,6
686744,9,1,6
701300,36,4,6
716896,729,0,6
733528,4356,49,6
752248,2116,169,6
772024,16,0,6
787628,81,4,6
803224,4,16,6
818804,1764,4,6
836500,1521,81,6
855228,144,64,6
872892,3721,49,6
891608,8836,289,6
911384,5625,361,6
931140,9,64,6
946720,961,25,6
964412,1600,16,6
983136,729,289,6
1001852,324,1,6
1019536,529,9,6
1037200,4225,324,6
1058000,1156,144,6
1078804,6724,100,6
1099608,12769,361,6
1121448,324,64,6
1140168,17424,289,6
1162012,5476,625,6
1182812,4356,4,6
1201528,19881,676,6
1223372,6724,841,6
1244184,196,81,6
1262896,0,0,6
1278504,4489,169,6
1299284,1849,361,6
1320096,1849,9,6
1338800,8649,169,6
1359616,5625,256,6
1380420,121,289,6
1400164,324,81,6
1418904,3364,121,6
1439688,900,169,6
1459468,36,9,6
1476104,144,25,6
1494816,784,81,6
1513544,2116,64,6
1533296,841,49,6
1552024,36,9,6
1568664,441,16,6
1587384,64,36,6
1605044,144,25,6
1623768,9,36,6
1640408,5329,64,6
1660188,1156,484,6
1680968,2401,4,6
1699688,5041,256,6
1720500,1681,49,6
1740240,1849,4,6
1758964,8464,121,6
1779772,8281,576,6
1800580,5776,361,6
1821372,3600,196,6
1842172,3136,225,6
1862996,441,144,6
1882732,289,4,6
1900408,3025,64,6
1920172,484,36,6
1938884,10816,49,6
1959688,15129,625,6
1981548,841,169,6
2001296,841,4,6
2018976,100,9,6
2036652,1156,36,6
2056420,3136,9,6
2075132,441,1,6
2092812,7569,144,6
2113608,3600,361,6
2134424,1936,36,6
2154180,16,16,6
2171856,225,1,6
2189532,3025,9,6
2208252,3969,324,6
2229048,256,4,6
2246732,22801,676,6
2268568,30276,1600,6
2291440,1444,625,6
2312256,1600,9,6
2330976,121,9,6
2348644,4900,100,6
2369452,81,49,6
2387148,3249,49,6
2406880,3844,121,6
2427692,2500,196,6
2448488,3844,49,6
2468248,16641,576,6
2490088,576,289,6
2509868,2809,324,6
2530660,2025,4,6
2549364,15876,1296,6
2572240,10404,400,6
2594088,2601,81,6
2613844,16,400,6
2632568,1296,36,6
2652328,14161,961,6
2674180,6084,484,6
2694968,3600,9,6
2713708,7569,81,6
2733456,1849,81,6
2753212,64,256,6
2771928,289,16,6
2790656,169,9,6
2808348,784,1,6
2826020,9,0,6
2841628,529,9,6
2859292,2116,9,6
2878012,5184,64,6
2897772,289,36,6
2916496,1521,25,6
2936248,7396,121,6
2957048,5476,256,6
2977856,1156,100,6
2998648,3136,16,6
3018408,3600,196,6
3039216,841,169,6
3058988,169,1,6
3076656,196,4,6
3094324,12996,144,6
3116160,17161,1369,6
3139056,36,361,6
3157768,2500,121,6
3178580,2916,0,6
3197296,16,4,6
3213928,2500,9,6
3232656,576,196,6
3252404,49,64,6
3270084,1225,64,6
3289856,289,49,6
3308584,1,4,6
3324184,169,9,6
3341868,1296,196,6
3362660,1156,49,6
3382424,324,4,6
3400088,841,49,6
3418820,49,25,6
3436488,1521,49,6
3456256,324,36,6
3474976,2500,81,6
3494732,3600,169,6
3515536,676,16,6
3534252,1521,25,6
3554008,576,100,6
3573772,121,4,6
3591452,4096,1,6
3610176,1936,324,6
3630992,1,4,6
3646576,1,64,6
3663220,81,36,6
3680892,81,25,6
3698580,256,100,6
3718352,256,9,6
3736024,9,4,6
3751608,4489,0,6
3770316,10000,441,6
3792192,1681,529,6
3812976,144,25,6
3831700,256,4,6
3849368,1225,144,6
3870168,3249,36,6
3889940,400,64,6
3908668,81,36,6
3926348,36,9,6
3942976,36,4,6
3959620,81,25,6
3977288,1936,49,6
3997052,6724,169,6
4017852,3249,324,6
4038664,16,4,6
4055304,1225,81,6
4075048,1681,49,6
4094820,784,25,6
4113548,16,9,6
4130180,1681,4,6
4148892,5476,64,6
4168636,3481,64,6
4188416,1369,25,6
4208180,49,25,6
4225852,1764,9,6
4244576,256,144,6
4264344,2025,16,6
4284100,729,196,6
4303852,100,36,6
4322572,784,64,6
4341292,729,0,6
4358980,36,49,6
4376672,121,16,6
4395384,16,1,6
4412016,16,16,6
4429696,961,9,6
4447384,2304,121,6
4468168,900,81,6
4486892,256,25,6
4505616,2601,36,6
4525380,49,144,6
4544084,900,25,6
4562808,324,81,6
4581552,0,9,6
4597148,64,9,6
4613772,1600,121,6
4634564,441,49,6
4653304,400,9,6
4670984,676,4,6
4688668,81,0,6
4705304,729,1,6
4722972,1600,64,6
4742728,361,121,6
4762488,2025,9,6
4781212,11236,289,6
4803044,361,400,6
4822808,8100,196,6
4843628,2209,361,6
4864432,196,100,6
4884176,81,1,6
4900804,1936,1,6
4919540,961,400,6
4939300,64,16,6
4956980,3969,361,6
4977780,1444,81,6
4997536,1,0,6
5013136,196,81,6
5031832,2601,100,6
5052652,12544,64,6
5073468,9025,900,6
5094264,2304,529,6
5115064,361,0,6
5132724,1936,1,6
5151448,16,1,6
5168084,5329,36,6
5187848,2809,225,6
5208660,3364,36,6
5228408,64,81,6
5246100,2809,9,6
5264816,121,81,6
5283532,144,100,6
5303272,2209,64,6
5323064,3249,100,6
5343860,49,121,6
5362576,64,16,6
5380260,9,4,6
5395864,100,9,6
5413532,676,16,6
5432256,144,49,6
5450992,400,9,6
5468656,100,36,6
5487372,169,25,6
5506100,841,25,6
5524824,1024,4,6
5543540,100,49,6
5562264,144,1,6
5579940,25,16,6
5597600,81,9,6
5614252,441,0,6
5631932,196,36,6
5650660,25,9,6
5667296,100,1,6
5684972,36,9,6
5701604,256,1,6
5719304,100,4,6
5736988,81,0,6
5753628,25,9,6
5770264,49,25,6
5787940,169,81,6
5806660,121,16,6
5825392,841,25,6
5844088,121,81,6
5862824,1089,1,6
5881536,144,49,6
5900256,64,16,6
5917952,9,1,6
5933544,529,81,6
5952252,49,0,6
5968900,625,9,6
5986584,441,121,6
6006344,225,1,6
6024024,0,9,6
6039640,289,0,6
6057312,9,16,6
6073940,36,4,6
6090572,25,16,6
6108268,16,25,6
6125952,900,1,6
6143624,529,9,6
6161300,4,9,6
6176908,144,0,6
6194584,225,16,6
6213292,144,1,6
6230968,484,4,6
6248676,64,16,6
6266340,400,4,6
6284016,256,16,6
6302740,121,4,6
6320420,625,25,6
6339140,529,49,6
6357852,289,25,6
6376592,4,4,6
6392176,576,9,6
6409860,529,36,6
6428576,9,1,6
6444188,64,4,6
6460804,8464,121,6
6481600,20736,1024,6
6504488,6561,676,6
6525296,1849,100,6
6546092,1,169,6
6563764,1089,16,6
6583544,1,49,6
6600184,361,16,6
6618908,784,16,6
6637604,5476,49,6
6657372,11025,729,6
6679208,5625,625,6
6700016,729,1,6
6717692,2704,49,6
6737448,15876,441,6
6759284,11881,1156,6
6782180,3600,361,6
6802988,900,25,6
6821704,576,121,6
6841468,64,144,6
6860176,1849,16,6
6879940,3969,196,6
6900740,961,16,6
6919468,225,4,6
6937132,676,81,6
6955860,1296,36,6
6975612,2209,36,6
6995368,7225,324,6
7016156,225,225,6
7035936,4356,121,6
7056740,1,121,6
7074424,289,100,6
7094172,169,9,6
7111856,625,4,6
7129528,0,400,6
7147220,169,25,6
7165932,676,144,6
7185712,144,9,6
7203360,3600,81,6
7223116,5776,169,6
7243928,1089,169,6
7264724,1764,121,6
7285532,36,9,6
7302184,2209,196,6
7322988,121,25,6
7341692,256,64,6
7360404,2704,121,6
7381216,2304,441,6
7402016,400,0,6
7419704,625,9,6
7437392,1,121,6
7455072,289,0,6
7472736,64,25,6
7490404,1764,9,6
7509124,16,25,6
7526808,7569,36,6
7546580,2704,625,6
7567388,9,16,6
7584008,529,1,6
7601696,3721,225,6
7622480,13456,400,6
7644340,14641,529,6
7666164,5329,729,6
7686956,6724,289,6
7707772,2209,169,6
7728576,1600,0,6
7747288,2209,169,6
7768096,400,36,6
7786820,784,1,6
7804492,4761,49,6
7824252,1521,121,6
7845064,100,1,6
7862736,4,49,6
7879372,1089,25,6
7899128,1156,49,6
7918908,400,0,6
7936572,1296,64,6
7956324,4624,324,6
7977132,1089,100,6
7997936,784,4,6
8015620,784,25,6
8034352,169,4,6
8052024,49,49,6
8069700,196,16,6
8088400,841,25,6
8107128,3136,121,6
8127932,81,36,6
8145616,2209,81,6
8165360,1444,49,6
8185144,9,9,6
8200748,400,9,6
8218400,841,9,6
8236100,1225,100,6
8256908,225,16,6
8275620,4,25,6
8292252,324,36,6
8310988,144,16,6
8329692,4,4,6
8345292,49,16,6
8362972,9,36,6
8379616,1,0,6
8395208,0,4,6
8410812,49,1,6
8427452,625,16,6
8446176,2704,169,6
8466976,6724,225,6
8487784,1156,441,6
8508576,81,121,6
8527288,784,4,6
8544976,1764,64,6
8564728,441,100,6
8584508,36,4,6
8601140,121,9,6
8618828,1,1,6
8634432,324,16,6
8653152,9,16,6
8669792,225,9,6
8687464,16,1,6
8704108,900,25,6
8722808,1681,64,6
8742584,961,25,6
8761280,729,25,6
8780024,1600,64,6
8799784,324,49,6
8818500,225,1,6
8836176,361,49,6
8854896,3481,49,6
8874644,9216,289,6
8895452,1600,289,6
8916264,9,0,6
8931848,2500,36,6
8951608,7396,441,6
8972424,2116,121,6
8993212,1681,36,6
9012968,3136,441,6
9033784,441,100,6
9053528,625,121,6
9073292,169,1,6
9090964,1681,100,6
9111784,1156,9,6
9130496,64,1,6
9147132,784,100,6
9166896,2916,121,6
9187708,256,4,6
9205384,196,4,6
9223056,9,25,6
9239708,400,4,6
9257388,400,16,6
9276108,25,49,6
9293776,36,4,6
9310420,4,4,6
9326012,16,1,6
9342660,0,4,6
9358256,4,4,6
9373864,0,4,6
9389460,1,4,6
9405052,1,0,6
9420664,0,1,6
9436268,0,0,6
9451864,0,0,6
9467452,16,4,6
9484104,9,1,6
9499708,9,0,6
9515300,400,1,6
9532980,1089,16,6
9552736,361,81,6
9571460,64,64,6
9589144,16,16,6
9606824,324,1,6
9624492,169,25,6
9643220,169,4,6
9660900,144,1,6
9678580,36,16,6
9696248,36,0,6
9712900,289,36,6
9731632,25,4,6
9748260,25,1,6
9764900,9,1,6
9780500,169,1,6
9798180,100,1,6
9815848,1,4,6
9831464,4,1,6
9847064,25,4,6
9863712,0,4,6
9879300,49,0,6
9895936,289,4,6
9913632,289,16,6
9932332,0,4,6
9947932,49,9,6
9964596,9,1,6
9980188,1,0,6
9995780,0,1,6
10011372,0,0,6
10028020,49,0,6
10045700,196,9,6
10064420,16,9,1
10082092,81,4,1
10099784,225,9,1
10118508,121,4,1
10137224,81,9,1
10154904,81,9,1
10172584,121,1,1
10191300,0,1,1
10207932,9,4,1
10224572,9,0,1
10241224,1,1,1
10257848,0,1,1
10274496,9,0,1
10291136,25,0,1
10308824,100,4,1
10327536,0,1,1
10344172,16,0,1
10361860,9,0,1
10378500,9,0,1
10395140,64,1,1
10412820,64,16,1
10431544,144,9,1
10450260,144,9,1
10468984,1,1,1
10485620,25,0,1
10503296,9,0,1
10519952,36,1,1
10537612,25,4,1
10555296,1,1,1
10571940,0,0,1
10588588,4,1,1
10605212,0,1,1
10621856,1,1,1
10638512,64,1,1
10656180,81,1,1
10673860,1,0,1
10690484,4,0,1
10707140,25,4,1
10724820,49,1,1
10742496,9,0,1
10759136,4,0,1
10775788,49,1,1
10793448,81,9,1
10811140,36,1,1
10828828,0,0,1
10845468,16,0,1
10863140,64,9,1
10880820,100,4,1
10899548,1,1,1
10916192,36,1,1
10933856,100,9,1
10952580,100,16,1
10972348,0,1,1
10988976,4,0,1
11005620,64,4,1
11023292,36,4,1
11040980,81,0,1
11058664,196,9,1
11077376,441,16,1
11097140,484,16,1
11116900,36,9,1
11134572,16,0,1
11152256,64,1,1
11169940,64,0,1
11187624,1,0,1
11204260,49,9,1
11221932,16,0,1
11239628,49,0,1
11257300,144,16,1
11277052,196,16,1
11296820,16,4,1
11314496,0,0,1
11331136,1,0,1
11347776,4,1,1
11364428,36,1,1
11382100,4,0,1
11398740,9,0,1
11415380,36,0,1
11433060,169,9,1
11451776,361,25,1
11471532,144,16,1
11491292,4,0,1
11507944,1,0,1
11524576,1,0,1
11541220,49,0,1
11558896,225,4,1
11577616,81,16,1
11596328,0,0,1
11612972,25,0,1
11630660,25,1,1
11648340,16,4,1
11666012,36,1,1
11683688,36,0,1
11701380,1,0,1
11718016,25,0,1
11735692,64,1,1
11753376,81,4,1
11771068,100,4,1
11789784,9,4,1
11806420,25,4,1
11824092,144,4,1
11842832,25,4,1
11860496,1,0,1
11877132,4,0,1
11893788,0,0,1
11910420,0,1,1
11927064,1,0,1
11943688,9,0,1
11960348,1,4,1
11976980,81,0,1
11994660,324,1,1
12013384,100,9,1
12032108,81,1,1
12049784,64,4,1
12067464,16,1,1
12085144,36,4,1
12102832,25,1,1
12120488,100,0,1
12139220,36,9,1
12156892,1,0,1
12173540,0,0,1
12190176,25,0,1
12207856,16,1,1
12225548,121,1,1
12244260,400,16,1
12264020,121,16,1
12283776,0,0,1
12300424,1,0,1
12317056,0,1,1
12333700,4,1,1
12350340,1,1,1
12366980,0,0,1
12383620,0,1,1
12400252,0,0,1
12416904,4,1,1
12433544,1,0,1
12450180,0,1,1
12466820,4,0,1
12483468,9,0,1
12500116,1,1,1
12516740,121,1,1
12535448,529,9,1
12554176,36,25,1
12572908,9,1,1
12589544,16,1,1
12607224,169,25,1
12626984,81,1,1
12644668,16,1,1
12662344,81,1,1
12680020,100,1,1
12698736,324,16,1
12718504,169,25,1
12738264,1,4,1
12754892,36,0,1
12772576,4,0,1
12789216,1,0,1
12805860,1,0,1
12822492,9,0,1
12839144,121,1,1
12857856,100,1,1
12876584,49,4,1
12894260,1,1,1
12910900,9,4,1
12927532,16,1,1
12945224,1,1,1
12961864,4,1,1
12978516,9,4,1
12995132,169,0,1
13013852,64,9,1
13031544,4,9,1
13048184,64,9,1
13065856,289,1,1
13084572,121,1,1
13103304,36,0,1
13120976,16,4,1
13138652,25,9,1
13156336,9,1,1
13172988,49,0,1
13190664,324,4,1
13209380,196,16,1
13229144,16,4,1
13246820,324,4,1
13265544,100,4,1
13284256,25,0,1
13301948,16,1,1
13319620,36,1,1
13337296,16,0,1
13354976,1,0,1
13371628,1,0,1
13388260,9,4,1
13404900,16,0,1
13422576,9,1,1
13439228,36,1,1
13456896,36,4,1
13474584,25,1,1
13492272,4,1,1
13508908,0,1,1
13525548,49,4,1
13543220,25,0,1
13560908,196,36,1
13580656,49,16,1
13599384,36,1,1
13617056,16,1,1
13634740,25,1,1
13652408,9,0,1
13669060,121,1,1
13687772,324,4,1
13706500,64,4,1
13724184,1,0,1
13740816,64,1,1
13758500,256,25,1
13778260,49,16,1
13796980,1,0,1
13813628,9,1,1
13830268,25,1,1
13847940,0,0,1
13864572,16,1,1
13882260,36,0,1
13899940,256,1,1
13918664,361,25,1
13938420,0,1,1
13955056,81,9,1
13972748,81,1,1
13990428,25,1,1
14008092,36,1,1
14025788,9,1,1
14042420,16,1,1
14060092,0,1,1
14076732,4,1,1
14093380,16,9,1
14111060,4,0,1
14127696,16,4,1
14145380,144,0,1
14164108,144,9,1
14182828,0,1,1
14199464,0,1,1
14216092,49,4,1
14233784,16,9,1
14251456,1,0,1
14268104,49,0,1
14285776,64,0,1
14303464,9,0,1
14320104,36,1,1
14337776,0,1,1
14354416,1,1,1
14371060,25,0,1
14388736,64,4,1
14406424,1,1,1
14423068,49,4,1
14440740,121,4,1
14459460,49,4,1
14477136,9,4,1
14493784,121,9,1
14512512,25,4,1
14530176,0,0,1
14546816,1,0,1
14563460,36,1,1
14581136,25,0,1
14598812,1,0,1
14615460,81,1,1
14633148,64,9,1
14650820,36,1,1
14668492,25,16,1
14687220,1,1,1
14703860,4,1,1
14720500,0,1,1
14737132,0,0,1
14753772,1,0,1
14770420,1,0,1
14787048,1,0,1
14803688,1,9,1
14820328,1,0,1
14836976,9,0,1
14853620,1,4,1
14870252,0,0,1
14886896,16,0,1
14904576,100,9,1
14923308,36,4,1
14940984,4,1,1
14957624,1,1,1
14974260,0,1,1
14990892,1,1,1
15007528,0,0,1
15024180,0,0,1
15040828,16,1,1
15058500,4,1,1
15075148,0,0,1
15091792,0,1,1
15108432,4,1,1
15125064,16,1,1
15142740,4,1,1
15159384,1,0,1
15176028,1,1,1
15192660,1,0,1
15209296,25,0,1
15226976,9,4,1
15243616,0,1,1
15260256,9,0,1
15276900,4,1,1
15293540,25,0,1
15311228,16,4,1
15328896,25,0,1
15346580,25,4,1
15364264,4,0,1
15380912,4,0,1
15397544,9,1,1
15414176,25,1,1
15431860,1,0,1
15448492,1,0,1
15465140,1,0,1
15481764,0,4,1
15498416,1,0,1
15515056,4,1,1
15531688,1,0,1
15548324,0,0,1
15564976,16,0,1
15582652,49,1,1
15600332,64,4,1
15618008,81,9,1
15635700,81,9,1
15653368,4,0,1
15670012,9,0,1
15686644,25,0,1
15704336,4,1,1
15720976,0,0,1
15737612,0,0,1
15754268,1,4,1
15770900,1,1,1
15787544,4,9,1
15804172,0,4,1
15820828,1,0,1
15837464,0,1,1
15854108,1,0,1
15870732,0,1,1
15887388,1,0,1
15904016,1,0,1
15920664,1,0,1
15937300,4,1,1
15953936,4,0,1
15970576,4,0,1
15987216,4,0,1
16003848,4,0,1
16020500,1,0,1
16037152,1,1,1
16053776,0,0,1
16070412,0,0,1
16087056,1,0,1
16103700,1,4,1
16120344,1,9,1
16136972,0,1,1
16153624,9,1,1
16170260,25,4,1
16187948,1,0,1
16204572,4,0,1
16221220,1,0,1
16237856,4,0,1
16254500,4,0,1
16271136,1,0,1
16287780,1,1,1
16304428,0,1,1
16321056,9,0,1
16337696,16,0,1
16355376,0,0,1
16372020,4,1,1
16388648,0,0,1
16405292,1,1,1
16421948,1,0,1
16438588,1,1,1
16455212,4,0,1
16471852,36,4,1
16489544,9,1,1
16506176,0,0,1
16522812,1,0,1
16539452,0,0,1
16556108,1,0,1
16572748,9,1,1
16589380,1,0,1
16606024,0,1,1
16622668,1,0,1
16639300,1,0,1
16655932,0,0,1
16672580,0,1,1
16689216,1,0,1
16705864,4,1,1
16722488,9,0,1
16739136,9,0,1
16755784,9,1,1
16772424,1,1,1
16789056,0,0,1
16805692,0,1,1
16822352,1,0,1
16838980,9,0,1
16855608,1,0,1
16872248,0,0,1
16888896,0,0,1
16905540,4,0,1
16922168,49,0,1
16939856,36,1,1
16957544,9,1,1
16974188,1,0,1
16990816,4,0,1
17007460,9,0,1
17024100,1,0,1
17040740,0,0,1
17057380,1,0,1
17074008,1,0,1
17090660,4,0,1
17107296,16,0,1
17124972,4,1,1
17141612,1,0,1
17158260,1,0,1
17174900,4,0,1
17191544,0,1,1
17208184,0,1,1
17224816,0,0,1
17241460,1,0,1
17258088,0,0,1
17274732,16,0,1
17292428,169,4,1
17311140,225,4,1
17329860,25,1,1
17347532,4,0,1
17364180,1,1,1
17380812,0,0,1
17397460,1,0,1
17414084,9,0,1
17430752,1,0,1
17447368,0,0,1
17464012,4,0,1
17480652,1,0,1
17497308,4,0,1
17513940,9,0,1
17530572,4,0,1
17547208,16,0,1
17564912,4,1,1
17581544,36,1,1
17599216,16,1,1
17616884,0,0,1
17633540,1,0,1
17650180,25,0,1
17667860,121,0,1
17686580,9,4,1
17703216,9,0,1
17719852,16,0,1
17737540,4,0,1
17754188,4,1,1
17770820,0,1,1
17787452,4,1,1
17804092,4,1,1
17820740,0,4,1
17837376,1,0,1
17854012,4,0,1
17870652,0,0,1
17887300,0,0,1
17903940,1,1,1
17920580,1,0,1
17937204,16,0,1
17954904,49,0,1
17972584,9,1,1
17989212,1,0,1
18005852,9,0,1
18022500,9,0,1
18039140,1,0,1
18055772,0,0,1
18072412,1,0,1
18089056,1,0,1
18105700,4,0,1
18122340,9,1,1
18138980,9,0,1
18155616,36,0,1
18173296,49,1,1
18190972,64,4,1
18208656,81,1,1
18226340,16,1,1
18244012,0,0,1
18260652,1,4,1
18277296,4,0,1
18293944,16,1,1
18311616,4,0,1
18328252,36,1,1
18345928,121,1,1
18364660,64,4,1
18382344,25,0,1
18400024,16,9,1
18417712,1,1,1
18434340,4,0,1
18450984,9,1,1
18467612,16,0,1
18485308,0,0,1
18501936,4,0,1
18518572,64,0,1
18536264,36,9,1
18553940,4,0,1
18570580,1,4,1
18587216,36,9,1
18604896,81,9,1
18622584,4,1,1
18639220,4,1,1
18655864,4,1,1
18672500,36,0,1
18690180,144,1,1
18708900,144,9,1
18727612,16,9,1
18745288,0,0,1
18761948,0,0,1
18778580,0,1,1
18795216,1,0,1
18811856,25,0,1
18829544,9,0,1
18846168,4,0,1
18862812,4,0,1
18879444,9,0,1
18896100,4,0,1
18912732,4,0,1
18929368,25,0,1
18947040,4,0,1
18963708,4,1,1
18980340,1,0,1
18996968,16,4,1
19014640,16,0,1
19032348,4,0,1
19048984,9,0,1
19065616,4,0,1
19082260,64,0,1
19099940,49,4,1
19117612,4,0,1
19134260,144,9,1
19152984,100,16,1
19172740,0,4,1
19189380,4,0,1
19206020,144,9,1
19224748,121,16,1
19244500,36,4,1
19262176,0,4,1
19278812,0,0,1
19295460,0,1,1
19312092,4,1,1
19328732,4,0,1
19345376,16,0,1
19363064,9,1,1
19379688,0,0,1
19396336,9,1,1
19412960,0,0,1
19429620,9,0,1
19446264,4,0,1
19462896,0,0,1
19479536,1,1,1
19496180,9,4,1
19512812,25,1,1
19530496,4,0,1
19547132,36,0,1
19564820,81,4,1
19582512,1,4,1
19599132,144,0,1
19617860,324,4,1
19636584,81,9,1
19654252,0,0,1
19670896,1,0,1
19687540,1,0,1
19704180,9,0,1
19720820,0,4,1
19737460,0,4,1
19754108,9,1,1
19770744,36,0,1
19788420,144,1,1
19807132,121,0,1
19825864,25,1,1
19843540,36,4,1
19861220,49,121,1
19880988,25,169,1
19900748,4,49,1
19918412,9,256,1
19937132,0,49,1
19954824,100,0,1
19973540,324,4,1
19992260,25,64,1
20010968,121,1,1
20029708,144,81,1
20049456,1,0,1
20066104,36,49,3
20084820,64,36,3
20103548,1,0,3
20120180,196,0,3
20138896,49,0,3
20156596,1,1,3
20173232,169,0,3
20191936,256,1,3
20210644,25,0,3
20228340,0,4,3
20244976,1,0,3
20261612,36,0,3
20279296,81,9,3
20296976,16,9,3
20314664,64,9,3
20332336,324,16,3
20352104,225,4,3
20370820,64,0,3
20388496,100,0,3
20407216,49,4,3
20424900,4,9,3
20441528,0,144,3
20460252,81,36,3
20478976,0,1,3
20495620,196,1,3
20514348,49,9,3
20532020,81,0,3
20549704,196,4,3
20568424,49,1,3
20586096,9,0,3
20602748,121,0,3
20621460,121,0,3
20640192,16,1,3
20657856,0,16,3
20675524,49,16,3
20694264,36,1,3
20711932,25,0,3
20729616,100,1,3
20748340,1,0,3
20764984,9,9,3
20781624,36,4,3
20799300,81,25,3
20818028,100,1,3
20836740,256,9,3
20855460,256,9,3
20874168,121,4,3
20892896,9,0,3
20909540,49,4,3
20927220,289,0,3
20945948,225,9,3
20964672,16,9,3
20982332,64,4,3
21000008,4,64,3
21017700,4,36,3
21035384,1,9,3
21052012,9,9,3
21068656,100,16,3
21088420,81,1,3
21106092,0,4,3
21122736,1,1,3
21139372,49,25,3
21158100,49,4,3
21175776,36,36,3
21194500,16,81,3
21213224,36,1,3
21230904,0,4,3
21247528,196,16,3
21267288,100,36,3
21287064,1,1,3
21303708,16,1,3
21321368,361,0,3
21340084,225,1,3
21358820,0,1,3
21375460,9,9,3
21392100,4,25,3
21409764,4,0,3
21426420,36,0,3
21444096,25,9,3
21461780,25,0,3
21479464,9,0,3
21496100,0,0,3
21512736,4,9,3
21529372,36,9,3
21547064,100,25,3
21566828,16,49,3
21585544,49,16,3
21604256,25,0,3
21621940,144,0,3
21640660,361,4,3
21659376,81,0,3
21677048,0,0,3
21693704,64,4,3
21711388,100,25,3
21731140,9,100,3
21749860,169,9,3
21768580,441,4,3
21787296,225,1,3
21806008,169,1,3
21824748,16,1,3
21842412,36,4,3
21860092,169,9,3
21878824,196,9,3
21897548,49,25,3
21916264,0,9,3
21932900,16,1,3
21950580,64,0,3
21968260,64,1,3
21985932,36,1,3
22003612,1,0,3
22020256,0,0,3
22036900,1,0,3
22053536,81,0,3
22071216,16,0,3
22088904,121,4,3
22107620,121,9,3
22126344,25,1,3
22144016,1,16,3
22161696,16,16,3
22180416,36,16,3
22199132,4,4,3
22215780,49,4,3
22233460,25,1,3
22251132,1,0,3
22267776,49,1,3
22285460,121,4,3
22304172,49,16,3
22322896,16,1,3
22340576,9,4,3
22357220,64,1,3
22374900,49,1,3
22392580,1,1,3
22409212,36,16,3
22427948,49,4,3
22445608,0,4,3
22462252,0,1,3
22478900,1,1,3
22495536,0,16,3
22513212,25,0,3
22530892,100,4,3
22549616,36,0,3
22567304,0,0,3
22583940,81,0,3
22601620,144,1,3
22620352,36,4,3
22638020,16,4,3
22655692,0,4,3
22672324,9,0,3
22688984,25,0,3
22706664,64,1,3
22724332,9,0,3
22740968,16,0,3
22758668,1,9,3
22775304,100,1,3
22794024,25,1,3
22811708,0,9,3
22828348,36,4,3
22846016,36,1,3
22863688,0,4,3
22880344,64,0,3
22898028,81,0,3
22915700,9,0,3
22932344,49,16,3
22951068,49,16,3
22969776,16,16,3
22988492,49,16,3
23007212,49,0,3
23024904,1,0,3
23041536,81,1,3
23059220,289,0,3
23077940,169,9,3
23096664,1,9,3
23113304,9,1,3
23129944,1,1,3
23146576,4,0,3
23163220,16,4,3
23180892,0,4,3
23197540,9,1,3
23214184,1,0,3
23230828,4,4,3
23247464,0,4,3
23264100,4,0,3
23280740,4,1,3
23297384,100,9,3
23316096,100,4,3
23334820,16,4,3
23352500,81,4,3
23370168,49,4,3
23387856,0,0,3
23404484,4,4,3
23421132,1,0,3
23437780,4,0,3
23454420,9,0,3
23471044,4,1,3
23487696,0,25,3
23505364,4,81,3
23523052,81,49,3
23541784,36,25,3
23560512,16,1,3
23578172,100,16,3
23597944,16,4,3
23615620,9,9,3
23632264,9,0,3
23648900,9,4,3
23665540,49,0,3
23683220,4,0,3
23699872,49,1,3
23717544,36,1,3
23735220,144,1,3
23753948,16,16,3
23772664,169,1,3
23791368,289,36,3
23811140,36,4,3
23828820,0,1,3
23845448,16,0,3
23863136,36,1,3
23880828,1,1,3
23897460,16,0,3
23915132,9,0,3
23931784,9,1,3
23948416,0,0,3
23965068,4,1,3
23981700,1,1,3
23998344,9,1,3
24014980,25,0,3
24032660,49,0,3
24050336,4,4,3
24066972,1,9,3
24083624,0,1,3
24100264,36,1,3
24117940,64,4,3
24135612,1,0,3
24152268,36,9,3
24169944,1,4,3
24186584,100,1,3
24205284,121,9,3
24224024,49,1,3
24241704,4,1,3
24258340,121,0,3
24277072,36,9,3
24294748,9,0,3
24311368,25,4,3
24329060,0,0,3
24345700,0,1,3
24362336,36,0,3
24380012,81,4,3
24397696,25,4,3
24415380,25,0,3
24433060,25,1,3
24450744,9,0,3
24467376,144,1,3
24486100,256,4,3
24504820,196,9,3
24523536,121,9,3
24542264,16,4,3
24559936,36,0,3
24577608,169,4,3
24596344,144,9,3
24615064,4,1,3
24631708,9,0,3
24648348,16,1,3
24666016,121,9,3
24684740,169,9,3
24703456,81,1,3
24721136,16,1,3
24738828,0,4,3
24755464,4,1,3
24772092,0,0,3
24788728,25,1,3
24806416,25,0,3
24824100,1,1,3
24840740,1,4,3
24857384,16,1,3
24875072,49,1,3
24892736,0,9,3
24909384,25,1,3
24927056,1,0,3
24943696,4,0,3
24960336,16,1,3
24978020,0,1,3
24994660,4,0,3
25011296,36,0,3
25028992,9,1,3
25045620,4,0,3
25062264,1,4,3
25078904,25,0,3
25096580,4,0,3
25113208,4,0,3
25129852,16,0,3
25147544,1,4,3
25164184,16,4,3
25181852,100,0,3
25200584,121,1,3
25219300,121,9,3
25238008,4,9,3
25254648,25,0,3
25272340,0,0,3
25288980,81,1,3
25306660,36,4,3
25324340,4,0,3
25340988,4,1,3
25357620,1,4,3
25374252,0,4,3
25390888,0,0,3
25407536,1,0,3
25424192,1,1,3
25440820,4,1,3
25457456,36,1,3
25475140,25,1,3
25492824,0,0,3
25509456,4,4,3
25526104,49,9,3
25543780,36,1,3
25561456,36,25,3
25580180,16,0,3
25597860,16,1,3
25615548,196,1,3
25634256,289,1,3
25652976,81,0,3
25670648,16,0,3
25688340,16,0,3
25706028,1,1,3
25722652,36,0,3
25740344,64,1,3
25758024,64,0,3
25775704,36,1,3
25793376,1,0,3
25810016,49,0,3
25827700,25,0,3
25845384,1,4,3
25862012,0,4,3
25878660,49,0,3
25896344,64,1,3
25914020,0,4,3
25930652,9,0,3
25947296,0,0,3
25963948,36,1,3
25981620,169,25,3
26001364,49,25,3
26020104,16,0,3
26037792,144,9,3
26056492,81,4,3
26074184,16,1,3
26091860,36,0,3
26109536,81,1,3
26127212,49,9,3
26144904,25,1,3
26162584,4,0,3
26179212,0,1,3
26195860,1,0,3
26212504,4,1,3
26229140,9,1,3
26245772,4,4,3
26262412,1,1,3
26279056,25,0,3
26296748,49,1,3
26314416,4,0,3
26331052,9,0,3
26347712,4,4,3
26364344,1,4,3
26380984,0,1,3
26397616,25,4,3
26415312,25,0,3
26432984,1,1,3
26449624,9,0,3
26466248,81,0,3
26483940,49,9,3
26501624,1,4,3
26518260,64,1,3
26535924,196,1,3
26554664,121,1,3
26573380,9,4,3
26590008,64,0,3
26607700,49,1,3
26625384,81,1,3
26643068,1,0,3
26659696,64,1,3
26677384,81,1,3
26695060,100,0,3
26713772,25,1,3
26731452,49,0,3
26749148,121,1,3
26767860,49,1,3
26785540,100,0,3
26804264,25,4,3
26821944,16,1,3
26839620,16,0,3
26857304,49,4,3
26874980,25,9,3
26892672,196,1,3
26911372,100,4,3
26930100,36,9,3
26947792,4,1,3
26964424,49,25,3
26983136,49,49,3
27001844,9,9,3
27018504,4,1,3
27035136,16,0,3
27052820,49,0,3
27070500,144,1,3
27089224,169,1,3
27107928,100,9,3
27126656,100,4,3
27145384,64,1,3
27163060,1,4,3
27179704,25,4,3
27197384,9,16,3
27215064,9,25,3
27232740,4,16,3
27250420,81,0,3
27268088,100,4,3
27286820,9,1,3
27303472,36,0,3
27321140,25,0,3
27338820,16,1,3
27356500,16,4,3
27374180,0,4,3
27390816,81,0,3
27408508,121,1,3
27427236,1,1,3
27443852,4,0,3
27460500,64,1,3
27478180,361,1,3
27496896,196,0,3
27515620,169,1,3
27534328,324,4,3
27553056,225,16,3
27572812,49,16,3
27591544,0,9,3
27608188,100,0,3
27626904,16,9,3
27644580,9,1,3
27661212,0,1,3
27677864,1,0,3
27694508,16,0,3
27712184,100,4,3
27730892,16,9,3
27748588,225,9,3
27767288,36,16,3
27786012,16,0,3
27803704,0,1,3
27820340,16,0,3
27838008,441,0,3
27856732,121,16,3
27876512,1,4,3
27893144,16,4,3
27910820,9,16,3
27928484,16,4,3
27946180,49,16,3
27964900,4,0,3
27981536,361,4,3
28000252,256,25,3
28020020,144,36,3
28039776,900,4,3
28058500,400,25,3
28078256,36,25,3
28096980,4,16,3
28114656,81,9,3
28132328,256,4,3
28151060,64,9,3
28168748,0,0,3
28185384,4,0,3
28202028,81,1,3
28219700,144,9,3
28238416,9,4,3
28255052,16,1,3
28272744,9,9,3
28289384,25,4,3
28307056,64,0,3
28324740,1,0,3
28341384,144,4,3
28360112,169,4,3
28378824,0,1,3
28395444,484,0,3
28414180,625,4,3
28432900,1,49,3
28450572,36,1,3
28468260,16,4,3
28485928,256,0,3
28504656,289,25,3
28524428,16,4,3
28542100,36,0,3
28559776,16,9,3
28577452,1,1,3
28594092,16,4,3
28611788,100,0,3
28630504,1,0,3
28647128,64,1,3
28664808,81,1,3
28682512,256,1,3
28701228,81,16,3
28719936,1,4,3
28736580,16,4,3
28754268,16,4,3
28771940,16,1,3
28789612,144,0,3
28808336,400,16,3
28828092,36,25,3
28846820,1,1,3
28863456,25,0,3
28881144,9,9,3
28897788,0,0,3
28914420,49,4,3
28932104,49,4,3
28949776,0,4,3
28966436,0,4,3
28983060,25,0,3
29000740,36,1,3
29018428,9,0,3
29035048,0,4,3
29051696,1,0,3
29068336,64,0,3
29086020,4,4,3
29102664,9,0,3
29119288,9,0,3
29135940,9,1,3
29152584,9,1,3
29169208,144,16,3
29188972,169,16,3
29208744,81,9,3
29226420,1,4,3
29243064,100,1,3
29261768,64,25,3
29280504,36,9,3
29298184,9,4,3
29314812,16,1,3
29332504,64,9,3
29350184,9,16,3
29367852,81,4,3
29385536,289,1,3
29404264,196,9,3
29422980,100,4,3
29441688,81,0,3
29459368,1,0,3
29476032,16,1,3
29493700,4,4,3
29510332,25,0,3
29528004,0,0,3
29544672,49,1,3
29562332,121,1,3
29581052,169,9,3
29599784,100,9,3
29618500,25,1,3
29636172,25,1,3
29653848,25,4,3
29671544,4,1,3
29688184,16,0,3
29705860,1,1,3
29722504,36,0,3
29740184,49,1,3
29757864,25,9,3
29775544,196,4,3
29794252,361,1,3
29812976,49,0,3
29830648,9,1,3
29847292,16,4,3
29864980,4,1,3
29881620,36,16,3
29900340,324,36,3
29920100,169,9,3
29938824,36,4,3
29956500,400,49,3
29976260,144,36,3
29996012,4,0,3
30012656,16,0,3
30030332,9,100,3
30049060,36,144,3
30068832,25,1,2
30086516,256,4,2
30105228,0,36,2
30122888,196,1,2
30141620,169,16,2
30161380,64,4,2
30179052,36,9,2
30196728,36,1,2
30214424,9,1,2
30231068,36,1,2
30248732,144,0,2
30267460,36,1,2
30285140,16,1,2
30302804,16,0,2
30320496,4,1,2
30337136,0,4,2
30353788,4,1,2
30370420,4,0,2
30387060,100,1,2
30405780,121,36,2
30425536,25,9,2
30443224,49,0,2
30460896,0,4,2
30477536,100,0,2
30496252,169,0,2
30514976,64,0,2
30532668,9,0,2
30549304,1,0,2
30565940,36,1,2
30583612,25,4,2
30601300,0,9,2
30617940,49,1,2
30635616,16,0,2
30653304,0,0,2
30669948,4,0,2
30686576,16,0,2
30704256,4,4,2
30720900,36,16,2
30739620,9,1,2
30756268,4,4,2
30772900,16,0,2
30790572,4,0,2
30807220,9,4,2
30823860,4,0,2
30840500,9,0,2
30857148,196,1,2
30875864,100,25,2
30895620,1,9,2
30912256,1,0,2
30928900,4,0,2
30945548,16,0,2
30963228,4,4,2
30979864,0,9,2
30996500,16,0,2
31014180,16,0,2
31031860,25,0,2
31049544,64,1,2
31067228,25,0,2
31084900,9,0,2
31101536,9,4,2
31118176,64,4,2
31135864,100,1,2
31154580,1,0,2
31171220,16,4,2
31188896,64,0,2
31206596,144,9,2
31225292,49,4,2
31242984,4,1,2
31259604,4,0,2
31276268,0,1,2
31292892,36,1,2
31310576,100,1,2
31329304,121,4,2
31348020,49,9,2
31365708,1,0,2
31382340,225,9,2
31401060,225,25,2
31420824,16,4,2
31438492,289,4,2
31457212,144,9,2
31475956,16,1,2
31493624,36,0,2
31511300,100,16,2
31531060,81,16,2
31549780,36,4,2
31567452,4,4,2
31584096,25,1,2
31601792,1,0,2
31618420,0,1,2
31635052,0,1,2
31651708,16,1,2
31669380,81,0,2
31687068,4,0,2
31703708,1,0,2
31720340,36,9,2
31738028,1,16,2
31755696,9,0,2
31772336,1,0,2
31788972,1,1,2
31805620,4,1,2
31822256,16,0,2
31839932,49,0,2
31857620,9,9,2
31874272,1,1,2
31890888,0,0,2
31907528,0,0,2
31924164,1,0,2
31940824,81,0,2
31958492,361,9,2
31977212,100,25,2
31996980,0,1,2
32013616,9,1,2
32030256,9,1,2
32046908,1,1,2
32063552,9,0,2
32080188,9,1,2
32096816,0,0,2
32113464,1,1,2
32130104,25,1,2
32147796,1,0,2
32164428,36,1,2
32182100,1,1,2
32198740,0,1,2
32215380,0,1,2
32232012,1,4,2
32248660,1,9,2
32265304,81,0,2
32282988,289,1,2
32301700,121,4,2
32320416,1,0,2
32337060,36,9,2
32354740,81,4,2
32372416,36,9,2
32390096,64,9,2
32407780,144,9,2
32426488,25,9,2
32444168,0,0,2
32460824,9,0,2
32477456,9,0,2
32494104,9,1,2
32510732,4,0,2
32527388,1,0,2
32544016,4,0,2
32560664,1,1,2
32577292,0,1,2
32593940,9,0,2
32610580,1,0,2
32627224,16,0,2
32644900,25,4,2
32662584,1,4,2
32679220,100,0,2
32697932,196,1,2
32716664,64,9,2
32734344,9,1,2
32750980,25,0,2
32768656,100,4,2
32787376,256,9,2
32806100,169,9,2
32824824,16,1,2
32842496,16,1,2
32860184,25,16,2
32878908,169,9,2
32897612,256,4,2
32916348,0,1,2
32932976,100,16,2
32952744,169,4,2
32971464,121,4,2
32990172,144,16,2
33009936,400,16,2
33029688,81,9,2
33047376,36,1,2
33065072,225,4,2
33083788,81,4,2
33101464,36,1,2
33119136,49,1,2
33136824,1,0,2
33153460,1,0,2
33170100,0,1,2
33186728,36,0,2
33204432,256,1,2
33223132,144,0,2
33241864,0,1,2
33258504,1,4,2
33275148,0,9,2
33291780,25,0,2
33309452,9,0,2
33326112,324,9,2
33344824,25,1,2
33362504,9,4,2
33379132,25,0,2
33396816,25,16,2
33415540,1,9,2
33432176,1,16,2
33449852,16,64,2
33468576,25,0,2
33486256,256,64,2
33506020,625,16,2
33525784,256,1,2
33544504,100,1,2
33563212,25,16,2
33581928,1,4,2
33598588,36,0,2
33616260,100,1,2
33634972,289,0,2
33653692,529,36,2
33673460,196,25,2
33693232,1,4,2
33709848,81,0,2
33727540,49,4,2
33745228,9,4,2
33761860,4,0,2
33778496,121,0,2
33797220,25,1,2
33814912,4,1,2
33831540,4,0,2
33848180,0,4,2
33864816,25,0,2
33882512,0,0,2
33899136,36,0,2
33916816,121,0,2
33935540,324,9,2
33954260,0,0,2
33970892,36,9,2
33988576,4,0,2
34005220,9,4,2
34021860,16,0,2
34039540,169,9,2
34058260,100,25,2
34078024,25,1,2
34095700,4,0,2
34112348,49,1,2
34130024,9,4,2
34146664,289,1,2
34165376,1225,49,2
34186176,361,81,2
34205948,25,1,2
34223620,9,4,2
34240268,64,1,2
34257936,256,16,2
34277700,196,9,2
34296416,81,1,2
34314092,81,25,2
34332820,121,25,2
34352576,169,0,2
34371292,144,4,2
34390020,9,9,2
34406668,0,4,2
34423300,4,4,2
34439932,36,0,2
34457628,0,0,2
34474260,25,1,2
34491940,25,1,2
34509620,9,0,2
34526260,0,1,2
34542900,1,0,2
34559540,4,1,2
34576176,25,0,2
34593864,25,0,2
34611540,0,0,2
34628180,1,4,2
34644812,16,0,2
34662500,49,1,2
34680184,100,1,2
34698892,16,1,2
34716572,1,0,2
34733224,0,0,2
34749860,0,0,2
34766496,169,0,2
34785204,676,16,2
34804984,289,36,2
34824748,64,1,2
34842412,9,1,2
34859064,4,1,2
34875704,36,4,2
34893384,100,1,2
34912108,225,1,2
34930824,100,4,2
34949548,0,0,2
34966184,36,9,2
34983848,36,4,2
35001540,16,4,2
35019220,4,4,2
35035852,16,0,2
35053532,36,0,2
35071232,9,1,2
35087860,100,0,2
35106572,256,9,2
35125308,81,9,2
35142996,49,1,2
35160660,9,1,2
35177292,4,1,2
35193948,1,1,2
35210576,9,0,2
35227212,16,0,2
35244900,4,0,2
35261544,9,0,2
35278180,49,1,2
35295856,9,4,2
35312492,1,0,2
35329144,4,0,2
35345776,0,0,2
35362412,9,0,2
35379064,121,4,2
35397792,64,9,2
35415468,1,0,2
35432088,16,0,2
35449768,49,0,2
35467464,81,4,2
35485144,16,4,2
35502820,1,0,2
35519444,0,0,2
35536112,81,1,2
35553780,169,9,2
35572500,9,1,2
35589156,1,0,2
35605792,36,4,2
35623472,16,1,2
35641144,0,0,2
35657776,0,0,2
35674420,16,0,2
35692088,9,0,2
35708736,1,0,2
35725384,9,0,2
35742028,1,0,2
35758648,0,0,2
35775292,4,0,2
35791940,4,0,2
35808576,0,0,2
35825208,16,0,2
35842900,25,1,2
35860584,49,1,2
35878260,25,4,2
35895948,4,1,2
35912588,4,0,2
35929220,25,0,2
35946900,25,0,2
35964580,16,4,2
35982252,49,0,2
35999940,4,1,2
36016584,4,0,2
36033216,64,1,2
36050884,81,0,2
36068580,0,0,2
36085212,0,4,2
36101860,1,4,2
36118484,1,0,2
36135140,25,0,2
36152812,25,1,2
36170496,1,1,2
36187128,25,1,2
36204824,4,4,2
36221468,0,0,2
36238104,4,0,2
36254740,25,0,2
36272420,4,0,2
36289060,1,1,2
36305700,16,0,2
36323380,0,0,2
36340024,0,4,2
36356660,4,0,2
36373292,4,1,2
36389936,0,0,2
36406580,64,1,2
36424260,100,4,2
36442976,1,9,2
36459624,1,0,2
36476260,36,0,2
36493940,64,0,2
36511624,25,4,2
36529300,4,0,2
36545936,4,0,2
36562572,16,1,2
36580256,1,4,2
36596904,0,0,2
36613544,0,1,2
36630172,1,0,2
36646808,0,0,2
36663464,1,1,2
36680100,36,0,2
36697784,49,4,2
36715452,4,0,2
36732108,0,0,2
36748740,100,1,2
36767460,289,16,2
36787220,64,4,2
36804908,1,0,2
36821548,0,0,2
36838168,4,0,2
36854820,9,1,2
36871464,9,0,2
36888108,1,0,2
36904744,1,0,2
36921388,81,1,2
36939072,25,1,2
36956736,4,0,2
36973376,1,0,2
36990024,4,0,2
37006664,4,0,2
37023292,9,0,2
37039940,16,0,2
37057620,16,1,2
37075304,4,4,2
37091940,9,0,2
37108580,9,1,2
37125220,0,0,2
37141860,1,1,2
37158488,0,0,2
37175140,1,0,2
37191776,0,0,2
37208416,0,0,2
37225052,0,1,2
37241704,1,0,2
37258336,25,1,2
37276020,49,1,2
37293688,36,0,2
37311372,25,1,2
37329064,4,1,2
37345704,4,1,2
37362332,4,0,2
37378972,0,0,2
37395620,16,1,2
37413292,36,4,2
37430980,4,1,2
37447612,4,0,2
37464268,25,9,2
37481936,1,4,2
37498576,9,1,2
37515220,36,9,2
37532904,9,4,2
37549544,1,0,2
37566176,0,0,2
37582808,9,0,2
37599468,36,1,2
37617136,0,0,2
37633780,9,1,2
37650412,1,0,2
37667060,1,1,2
37683696,1,0,2
37700340,9,1,2
37716976,36,4,2
37734668,0,9,2
37751304,4,0,2
37767940,25,0,2
37785624,64,9,2
37803308,16,0,2
37820972,1,0,2
37837620,1,0,2
37854264,1,1,2
37870912,1,0,2
37887532,0,0,2
37904180,4,1,2
37920820,4,1,2
37937456,1,0,2
37954092,1,0,2
37970740,36,0,2
37988420,49,1,2
38006096,0,0,2
38022736,0,0,2
38039388,9,1,2
38056016,0,0,2
38072656,0,0,2
38089292,4,0,2
38105940,9,1,2
38122584,49,1,2
38140276,36,1,2
38157948,16,1,2
38175612,36,0,2
38193304,16,0,2
38210980,25,4,2
38228660,16,4,2
38246332,9,0,2
38262980,36,0,2
38280648,9,0,2
38297292,1,0,2
38313932,64,0,2
38331620,64,1,2
38349288,25,0,2
38366968,16,0,2
38384660,16,0,2
38402348,64,4,2
38420016,169,4,2
38438744,49,1,2
38456432,1,1,2
38473060,9,0,2
38489700,0,0,2
38506332,4,0,2
38522980,4,0,2
38539620,0,0,2
38556248,25,0,2
38573924,16,0,2
38591620,0,1,2
38608256,1,0,2
38624900,16,0,2
38642576,49,4,2
38660264,49,9,2
38677932,9,4,2
38694576,1,1,2
38711208,16,0,2
38728916,25,1,2
38746576,0,1,2
38763228,0,1,2
38779856,0,0,2
38796508,1,0,2
38813140,1,0,2
38829780,1,0,2
38846408,16,1,2
38864108,1,1,2
38880740,25,0,2
38898424,81,1,2
38916084,9,0,2
38932740,1,1,2
38949372,0,1,2
38966008,0,0,2
38982644,1,0,2
38999304,9,1,2
39015936,36,1,2
39033624,49,1,2
39051304,25,4,2
39068988,1,1,2
39085612,0,0,2
39102252,0,1,2
39118896,4,0,2
39135540,4,0,2
39152176,0,1,2
39168816,25,0,2
39186496,4,0,2
39203144,4,0,2
39219780,1,0,2
39236420,1,0,2
39253064,1,1,2
39269700,0,0,2
39286340,1,1,2
39302972,1,0,2
39319620,25,0,2
39337304,36,0,2
39354984,36,4,2
39372664,0,1,2
39389300,9,0,2
39405940,0,0,2
39422576,4,0,2
39439216,0,0,2
39455860,9,0,2
39472500,0,0,2
39489132,1,1,2
39505772,0,0,2
39522428,25,1,2
39540104,64,1,2
39557780,9,4,2
39574420,16,1,2
39592100,25,1,2
39609768,1,0,2
39626412,4,0,2
39643056,4,0,2
39659704,9,0,2
39676340,0,1,2
39692972,0,0,2
39709616,1,1,2
39726260,4,0,2
39742892,25,1,2
39760572,16,0,2
39778252,0,0,2
39794900,4,0,2
39811536,25,0,2
39829228,25,4,2
39846896,0,1,2
39863540,25,0,2
39881216,25,0,2
39898892,0,0,2
39915544,4,0,2
39932184,16,0,2
39949872,4,1,2
39966496,49,0,2
39984180,36,1,2
40001860,16,1,2
40019540,1,1,2
40036180,16,1,2
40053872,4,1,7
40070504,25,4,7
40088180,0,1,7
40104812,9,1,7
40121460,16,0,7
40139140,1,0,7
40155772,0,0,7
40172412,4,1,7
40189072,1,0,7
40205712,9,0,7
40222332,9,1,7
40238980,4,1,7
40255620,16,4,7
40273304,16,1,7
40290980,1,0,7
40307612,4,1,7
40324260,36,1,7
40341932,25,4,7
40359628,0,1,7
40376252,64,1,7
40393944,36,1,7
40411620,1,1,7
40428252,0,1,7
40444896,1,0,7
40461536,0,0,7
40478180,4,0,7
40494812,0,1,7
40511452,0,0,7
40528100,0,1,7
40544732,0,0,7
40561384,9,1,7
40578008,36,1,7
40595700,36,0,7
40613384,4,1,7
40630020,0,0,7
40646648,0,1,7
40663300,0,0,7
40679936,4,0,7
40696580,1,1,7
40713220,0,0,7
40729860,0,0,7
40746488,0,0,7
40763136,4,1,7
40779764,0,0,7
40796420,16,1,7
40814108,4,0,7
40830732,1,0,7
40847380,0,0,7
40864020,4,0,7
40880656,25,0,7
40898332,9,1,7
40914988,0,0,7
40931620,0,0,7
40948256,0,0,7
40964892,0,0,7
40981540,1,0,7
40998180,9,0,7
41014820,9,1,7
41031452,16,0,7
41049136,36,0,7
41066824,16,1,7
41084492,0,0,7
41101128,4,0,7
41117780,4,0,7
41134424,16,0,7
41152108,36,4,7
41169776,9,1,7
41186420,4,0,7
41203064,25,1,7
41220744,1,0,7
41237380,36,4,7
41255068,9,1,7
41271700,0,0,7
41288336,1,0,7
41304980,1,1,7
41321620,0,1,7
41338260,25,0,7
41355940,16,1,7
41373612,1,0,7
41390260,25,4,7
41407932,25,1,7
41425616,0,1,7
41442256,4,0,7
41458900,0,0,7
41475536,0,1,7
41492176,0,0,7
41508808,0,1,7
41525448,0,0,7
41542092,0,0,7
41558744,0,0,7
41575368,0,0,7
41592016,0,0,7
41608648,0,0,7
41625292,0,0,7
41641920,9,0,7
41658580,25,1,7
41676260,0,0,7
41692888,16,0,7
41710564,36,4,7
41728260,25,4,7
41745940,1,4,7
41762568,0,0,7
41779220,9,1,7
41795860,9,1,7
41812508,4,0,7
41829140,121,4,7
41847864,49,4,7
41865548,4,1,7
41882168,16,0,7
41899852,25,4,7
41917536,16,0,7
41935216,9,0,7
41951852,4,4,7
41968492,9,1,7
41985140,9,0,7
42001776,0,0,7
42018412,0,0,7
42035060,4,0,7
42051708,4,1,7
42068340,0,0,7
42084972,0,1,7
42101616,16,0,7
42119304,64,1,7
42136980,36,4,7
42154652,0,0,7
42171292,1,0,7
42187944,4,1,7
42204580,0,0,7
42221220,16,0,7
42238884,36,1,7
42256584,4,1,7
42273212,1,0,7
42289852,4,1,7
42306496,1,1,7
42323152,16,0,7
42340820,25,1,7
42358496,9,4,7
42375128,9,1,7
42391780,0,0,7
42408424,0,4,7
42425048,0,0,7
42441688,16,1,7
42459380,25,0,7
42477060,4,1,7
42493704,1,1,7
42510344,9,1,7
42526988,1,1,7
42543624,1,0,7
42560252,0,1,7
42576900,1,0,7
42593540,1,1,7
42610172,4,0,7
42626820,1,0,7
42643452,0,0,7
42660096,0,0,7
42676740,1,0,7
42693368,16,0,7
42711056,16,0,7
42728736,4,0,7
42745384,4,0,7
42762016,9,0,7
42778660,25,0,7
42796348,4,1,7
42812976,4,0,7
42829624,25,1,7
42847308,1,0,7
42863940,1,0,7
42880568,0,0,7
42897212,9,0,7
42913856,0,0,7
42930508,36,0,7
42948172,9,4,7
42964820,1,0,7
42981468,1,0,7
42998104,1,1,7
43014744,9,0,7
43031384,1,1,7
43048016,4,0,7
43064660,9,0,7
43081296,1,0,7
43097928,1,0,7
43114580,0,0,7
43131224,1,1,7
43147852,9,0,7
43164504,0,0,7
43181148,0,0,7
43197780,4,0,7
43214412,9,0,7
43231064,0,1,7
43247708,0,0,7
43264348,1,0,7
43280976,16,1,7
43298652,0,0,7
43315308,9,0,7
43331948,1,0,7
43348572,0,0,7
43365208,0,0,7
43381860,1,0,7
43398500,4,0,7
43415132,4,0,7
43431780,1,0,7
43448416,1,1,7
43465060,0,0,7
43481704,16,0,7
43499384,81,1,7
43517072,1,1,7
43533708,25,0,7
43551380,1,0,7
43568020,0,0,7
43584660,1,0,7
43601300,4,0,7
43617936,81,0,7
43635616,289,1,7
43654336,49,4,7
43672016,1,0,7
43688660,1,0,7
43705292,0,0,7
43721944,0,0,7
43738576,9,0,7
43755208,4,0,7
43771844,0,0,7
43788504,1,0,7
43805132,9,1,7
43821776,25,1,7
43839456,16,1,7
43857140,0,0,7
43873772,16,1,7
43891452,16,1,7
43909140,1,0,7
43925784,0,1,7
43942420,36,1,7
43960092,16,1,7
43977788,1,1,7
43994420,16,0,7
44012092,16,0,7
44029780,16,0,7
44047456,25,0,7
44065148,4,0,7
44081772,0,0,7
44098412,1,0,7
44115060,0,0,7
44131704,0,1,7
44148336,0,0,7
44164980,1,0,7
44181620,49,0,7
44199304,49,4,7
44216984,1,1,7
44233620,16,0,7
44251304,81,1,7
44268972,36,4,7
44286660,9,0,7
44303296,1,0,7
44319940,9,0,7
44336576,49,1,7
44354252,9,1,7
44370900,0,0,7
44387536,1,0,7
44404168,16,0,7
44421852,16,4,7
44439532,36,1,7
44457228,49,1,7
44474912,1,1,7
44491540,36,1,7
44509224,0,0,7
44525864,4,0,7
44542500,64,1,7
44560168,9,4,7
44576820,9,0,7
44593464,49,4,7
44611140,9,0,7
44627784,4,0,7
44644420,16,4,7
44662096,1,0,7
44678748,25,1,7
44696424,16,0,7
44714108,49,1,7
44731784,16,4,7
44749452,9,1,7
44766088,0,0,7
44782744,16,0,7
44800420,0,0,7
44817056,0,0,7
44833696,25,1,7
44851384,9,1,7
44868016,4,0,7
44884648,4,1,7
44901288,16,0,7
44918984,64,4,7
44936656,49,0,7
44954344,64,1,7
44972016,9,1,7
44988660,0,0,7
45005296,9,0,7
45021932,4,0,7
45038572,49,1,7
45056264,9,1,7
45072892,1,0,7
45089544,16,0,7
45107216,4,0,7
45123856,4,0,7
45140500,0,0,7
45157140,9,0,7
45173780,0,0,7
45190420,25,1,7
45208100,4,1,7
45224732,4,0,7
45241380,25,1,7
45259056,64,0,7
45276732,16,1,7
45294408,0,0,7
45311060,4,1,7
45327708,9,1,7
45344328,16,4,7
45362020,1,0,7
45378660,0,1,7
45395300,4,0,7
45411936,36,0,7
45429616,36,4,7
45447304,0,1,7
45463944,1,0,7
45480568,4,0,7
45497216,0,1,7
45513860,49,1,7
45531540,49,9,7
45549224,4,1,7
45565848,0,0,7
45582496,1,0,7
45599140,0,0,7
45615780,0,0,7
45632408,4,0,7
45649056,4,0,7
45665700,9,1,7
45682344,0,1,7
45698976,1,1,7
45715620,0,1,7
45732256,4,0,7
45748892,25,0,7
45766564,16,1,7
45784264,0,1,7
45800904,0,0,7
45817544,1,1,7
45834168,4,1,7
45850816,1,0,7
45867448,0,0,7
45884100,1,0,7
45900736,4,1,7
45917380,4,0,7
45934012,4,0,7
45950664,4,1,7
45967288,1,0,7
45983936,1,0,7
46000568,0,0,7
46017212,4,0,7
46033864,36,1,7
46051544,36,0,7
46069228,25,1,7
46086892,0,1,7
46103528,4,1,7
46120176,0,0,7
46136812,1,0,7
46153456,1,0,7
46170084,9,1,7
46186744,4,4,7
46203380,1,1,7
46220016,0,0,7
46236656,4,1,7
46253304,9,4,7
46269932,0,1,7
46286568,0,0,7
46303216,1,0,7
46319860,1,0,7
46336496,49,4,7
46354188,81,1,7
46371856,25,0,7
46389540,4,1,7
46406192,9,0,7
46422824,49,1,7
46440500,16,4,7
46458176,0,0,7
46474820,4,0,7
46491468,4,1,7
46508100,0,0,7
46524740,1,0,7
46541380,0,0,7
46558020,9,0,7
46574660,25,0,7
46592344,25,0,7
46610028,25,1,7
46627704,0,1,7
46644340,1,0,7
46660980,0,0,7
46677612,0,0,7
46694264,0,0,7
46710900,4,0,7
46727548,4,0,7
46744184,100,4,7
46762900,81,4,7
46780588,4,1,7
46797220,1,1,7
46813860,1,0,7
46830492,16,0,7
46848176,1,0,7
46864808,9,0,7
46881460,9,1,7
46898088,0,0,7
46914736,0,0,7
46931380,4,0,7
46948020,0,0,7
46964652,1,1,7
46981304,36,0,7
46998984,4,1,7
47015616,1,0,7
47032244,16,0,7
47049940,4,1,7
47066576,4,1,7
47083224,36,0,7
47100892,16,4,7
47118580,0,0,7
47135216,1,0,7
47151856,16,0,7
47169528,36,4,7
47187220,0,1,7
47203872,36,1,7
47221536,121,4,7
47240272,4,1,7
47256896,144,4,7
47275620,9,4,7
47292252,9,0,7
47308896,9,0,7
47325540,0,1,7
47342172,1,0,7
47358812,0,1,7
47375460,0,0,7
47392096,1,0,7
47408736,4,1,7
47425372,9,0,7
47442016,0,0,7
47458664,0,1,7
47475300,4,0,7
47491932,0,1,7
47508580,4,0,7
47525232,9,1,7
47541852,1,0,7
47558496,36,1,7
47576188,36,1,7
47593856,0,1,7
47610496,9,1,7
47627136,0,0,7
47643776,1,0,7
47660420,1,0,7
47677052,16,1,7
47694728,16,0,7
47712416,0,0,7
47729064,0,0,7
47745700,16,0,7
47763380,9,1,7
47780032,0,0,7
47796648,0,0,7
47813292,0,1,7
47829924,0,0,7
47846580,1,0,7
47863212,1,1,7
47879860,1,0,7
47896484,0,0,7
47913140,4,0,7
47929780,49,1,7
47947464,36,1,7
47965128,16,1,7
47982820,4,0,7
47999464,0,1,7
48016100,16,0,7
48033764,64,0,7
48051468,121,4,7
48070180,169,9,7
48088896,25,4,7
48106584,0,0,7
48123232,9,1,7
48139860,1,0,7
48156500,1,0,7
48173136,9,0,7
48189792,4,0,7
48206420,100,1,7
48225136,4,4,7
48241784,0,4,7
48258428,36,0,7
48276100,49,4,7
48293768,4,0,7
48310420,16,0,7
48328096,25,0,7
48345776,4,1,7
48362404,1,0,7
48379060,0,0,7
48395688,9,0,7
48412332,0,0,7
48428976,4,0,7
48445632,49,1,7
48463304,9,1,7
48479944,9,0,7
48496568,100,1,7
48515300,121,1,7
48534012,121,4,7
48552740,36,4,7
48570428,9,0,7
48587064,16,0,7
48604736,81,0,7
48622412,0,4,7
48639064,36,0,7
48656740,289,9,7
48675460,144,25,7
48695216,4,0,7
48711860,4,0,7
48728496,16,1,7
48746176,49,9,7
48763848,25,4,7
48781548,9,0,7
48798180,1,1,7
48814820,4,1,7
48831456,1,0,7
48848108,1,0,7
48864748,16,1,7
48882424,100,4,7
48901144,64,1,7
48918824,49,1,7
48936500,1,0,7
48953140,36,9,7
48970828,1,4,7
48987468,1,0,7
49004104,1,0,7
49020740,0,0,7
49037376,1,0,7
49054020,25,1,7
49071692,36,1,7
49089376,9,1,7
49106024,9,1,7
49122660,4,0,7
49139296,9,0,7
49155932,4,0,7
49172576,16,0,7
49190256,0,0,7
49206900,0,0,7
49223544,25,0,7
49241220,9,1,7
49257860,0,0,7
49274488,16,0,7
49292176,16,0,7
49309860,1,0,7
49326500,16,0,7
49344176,25,1,7
49361848,49,1,7
49379544,16,1,7
49397220,9,0,7
49413852,121,1,7
49432580,9,4,7
49449232,81,4,7
49466912,100,1,7
49485608,49,0,7
49503316,1,1,7
49519940,16,0,7
49537624,49,1,7
49555296,81,4,7
49572984,36,1,7
49590672,4,0,7
49607300,4,0,7
49623928,9,0,7
49640584,4,1,7
49657224,16,1,7
49674896,25,4,7
49692572,4,1,7
49709220,1,0,7
49725856,0,0,7
49742496,4,0,7
49759140,1,1,7
49775784,4,0,7
49792416,1,0,7
49809060,9,1,7
49825692,1,0,7
49842332,0,0,7
49858976,0,0,7
49875612,4,0,7
49892248,0,0,7
49908912,4,0,7
49925544,64,0,7
49943220,1,4,7
49959844,36,0,7
49977544,16,4,7
49995220,1,0,7
50011864,4,0,7
50028492,4,1,7
50045140,4,0,7
50061780,16,0,2
50079452,16,0,2
50097132,0,0,2
50113780,4,1,2
50130408,0,4,2
50147044,1,0,2
50163684,0,0,2
50180340,4,1,2
50196964,1,0,2
50213612,16,0,2
50231304,64,1,2
50248980,25,4,2
50266656,0,0,2
50283296,0,0,2
50299948,9,1,2
50316580,0,0,2
50333220,36,1,2
50350896,25,1,2
50368576,4,0,2
50385224,0,0,2
50401860,36,0,2
50419540,36,4,2
50437228,16,1,2
50454900,36,4,2
50472572,4,9,2
50489212,0,0,2
50505856,9,0,2
50522500,9,4,2
50539136,0,1,2
50555780,0,0,2
50572416,0,0,2
50589068,4,0,2
50605692,4,0,2
50622332,0,0,2
50638972,0,0,2
50655620,1,0,2
50672264,0,1,2
50688900,0,0,2
50705540,4,1,2
50722184,25,1,2
50739860,1,1,2
50756492,4,0,2
50773140,0,0,2
50789780,1,0,2
50806412,0,0,2
50823052,0,4,2
50839708,0,1,2
50856336,0,0,2
50872972,1,0,2
50889612,0,1,2
50906260,0,0,2
50922904,4,1,2
50939536,4,1,2
50956172,0,0,2
50972816,1,0,2
50989456,0,0,2
51006092,4,0,2
51022728,0,0,2
51039376,4,0,2
51056020,4,1,2
51072648,4,0,2
51089288,9,0,2
51105940,16,1,2
51123620,36,4,2
51141288,36,4,2
51158964,16,1,2
51176660,0,1,2
51193292,4,0,2
51209940,4,0,2
51226568,1,0,2
51243228,9,1,2
51259860,9,0,2
51276504,0,1,2
51293128,4,1,2
51309776,4,0,2
51326412,16,0,2
51344100,9,4,2
51360736,4,1,2
51377388,1,0,2
51394024,0,0,2
51410652,0,0,2
51427284,0,0,2
51443940,4,0,2
51460580,16,1,2
51478252,4,1,2
51494892,4,0,2
51511536,0,0,2
51528184,36,0,2
51545864,4,1,2
51562492,1,0,2
51579140,0,0,2
51595772,0,0,2
51612420,1,0,2
51629048,4,1,2
51645696,16,0,2
51663376,36,0,2
51681052,36,0,2
51698740,1,4,2
51715384,1,0,2
51732016,4,0,2
51748648,4,4,2
51765300,16,1,2
51782980,16,0,2
51800656,0,1,2
51817296,0,1,2
51833940,0,0,2
51850576,0,0,2
51867212,0,0,2
51883848,4,0,2
51900500,9,0,2
51917140,1,0,2
51933768,0,0,2
51950408,0,0,2
51967068,0,0,2
51983700,0,0,2
52000328,0,0,2
52016972,0,0,2
52033620,9,1,2
52050260,36,4,2
52067940,16,4,2
52085612,0,1,2
52102256,1,0,2
52118896,16,0,2
52136580,1,1,2
52153208,0,0,2
52169860,16,0,2
52187548,25,1,2
52205220,1,0,2
52221856,1,1,2
52238496,0,0,2
52255140,0,0,2
52271776,1,0,2
52288412,9,0,2
52305056,0,0,2
52321704,1,0,2
52338340,36,0,2
52356008,25,1,2
52373700,25,0,2
52391380,4,1,2
52408020,0,1,2
52424648,4,0,2
52441304,0,1,2
52457940,4,1,2
52474568,1,0,2
52491208,0,1,2
52507860,4,0,2
52524504,1,1,2
52541132,1,0,2
52557772,4,1,2
52574424,36,1,2
52592104,4,1,2
52608740,0,1,2
52625376,0,0,2
52642020,16,0,2
52659692,49,9,2
52677380,1,4,2
52694024,1,1,2
52710660,16,1,2
52728352,36,1,2
52746012,36,1,2
52763704,25,1,2
52781388,1,0,2
52798016,0,0,2
52814648,0,0,2
52831300,0,0,2
52847940,1,1,2
52864580,0,0,2
52881216,0,0,2
52897864,0,1,2
52914500,0,0,2
52931136,0,0,2
52947784,9,0,2
52964416,4,0,2
52981068,1,0,2
52997700,9,0,2
53014344,9,1,2
53030980,0,1,2
53047616,1,0,2
53064252,4,0,2
53080892,1,0,2
53097540,1,0,2
53114180,0,0,2
53130816,9,1,2
53147452,9,0,2
53164112,1,0,2
53180748,4,1,2
53197368,4,0,2
53214016,0,0,2
53230660,4,0,2
53247300,9,0,2
53263932,1,0,2
53280572,16,0,2
53298256,4,0,2
53314904,0,1,2
53331540,0,0,2
53348176,25,1,2
53365864,100,1,2
53384584,36,4,2
53402256,4,1,2
53418892,0,0,2
53435548,1,0,2
53452188,0,0,2
53468808,0,0,2
53485460,4,0,2
53502100,25,0,2
53519780,9,1,2
53536424,0,0,2
53553056,4,0,2
53569708,49,1,2
53587368,25,4,2
53605048,0,0,2
53621684,1,0,2
53638336,0,0,2
53654976,4,0,2
53671612,36,4,2
53689296,4,1,2
53705936,0,0,2
53722568,0,0,2
53739220,0,1,2
53755848,9,1,2
53772500,64,0,2
53790180,64,4,2
53807852,4,9,2
53824484,0,0,2
53841128,0,0,2
53857772,1,0,2
53874416,4,1,2
53891056,4,0,2
53907696,0,0,2
53924332,1,0,2
53940980,9,0,2
53957612,9,0,2
53974268,9,0,2
53990888,16,0,2
54008584,16,1,2
54026272,0,0,2
54042900,0,0,2
54059540,4,0,2
54076184,36,0,2
54093856,16,0,2
54111540,0,0,2
54128172,4,0,2
54144816,1,0,2
54161460,1,0,2
54178100,1,0,2
54194732,0,0,2
54211384,1,1,2
54228020,0,0,2
54244668,1,0,2
54261292,1,0,2
54277940,4,0,2
54294576,0,0,2
54311220,16,1,2
54328896,0,1,2
54345536,16,1,2
54363220,9,0,2
54379860,0,0,2
54396504,1,1,2
54413140,0,1,2
54429780,4,1,2
54446416,0,0,2
54463052,0,0,2
54479700,1,0,2
54496344,9,0,2
54512976,25,0,2
54530656,49,1,2
54548336,36,4,2
54566020,16,4,2
54583704,0,1,2
54600340,9,1,2
54616972,36,4,2
54634660,16,1,2
54652336,0,1,2
54668984,0,0,2
54685616,9,0,2
54702260,9,4,2
54718900,0,0,2
54735532,1,1,2
54752172,1,0,2
54768820,4,0,2
54785452,0,1,2
54802092,9,1,2
54818720,25,0,2
54836420,0,0,2
54853052,0,0,2
54869700,4,0,2
54886336,36,0,2
54904024,81,1,2
54921692,16,1,2
54939372,4,0,2
54956004,9,0,2
54972660,4,0,2
54989292,1,0,2
55005932,4,0,2
55022572,4,0,2
55039220,4,0,2
55055860,9,0,2
55072508,100,1,2
55091228,64,4,2
55108896,0,0,2
55125548,4,0,2
55142172,0,1,2
55158824,1,0,2
55175460,0,0,2
55192100,1,0,2
55208732,9,0,2
55225380,1,0,2
55242024,36,1,2
55259700,4,1,2
55276340,0,0,2
55292976,0,1,2
55309616,4,0,2
55326264,0,1,2
55342900,0,0,2
55359536,4,0,2
55376176,4,0,2
55392820,4,0,2
55409460,1,0,2
55426100,0,0,2
55442740,0,0,2
55459368,0,0,2
55476016,1,0,2
55492656,1,0,2
55509300,0,1,2
55525932,0,0,2
55542580,1,0,2
55559220,4,1,2
55575868,1,0,2
55592496,9,1,2
55609128,0,0,2
55625776,4,0,2
55642420,0,0,2
55659052,0,1,2
55675704,1,1,2
55692348,1,0,2
55708984,9,0,2
55725612,1,1,2
55742268,0,0,2
55758896,0,0,2
55775536,1,0,2
55792184,0,0,2
55808816,0,0,2
55825460,1,0,2
55842112,0,1,2
55858732,36,1,2
55876416,1,0,2
55893064,1,0,2
55909700,1,0,2
55926332,0,0,2
55942972,0,1,2
55959620,1,0,2
55976256,9,0,2
55992896,9,1,2
56009532,0,1,2
56026188,1,0,2
56042816,0,0,2
56059448,1,0,2
56076088,0,0,2
56092740,0,0,2
56109380,16,1,2
56127060,49,1,2
56144732,36,1,2
56162420,1,0,2
56179060,1,0,2
56195700,0,0,2
56212340,1,0,2
56228988,16,4,2
56246668,1,0,2
56263300,1,1,2
56279932,0,0,2
56296580,0,0,2
56313216,4,0,2
56329864,0,0,2
56346492,16,0,2
56364180,4,0,2
56380820,1,0,2
56397452,0,0,2
56414088,1,0,2
56430740,9,0,2
56447384,9,0,2
56464024,1,1,2
56480652,0,1,2
56497308,4,0,2
56513944,36,1,2
56531612,9,0,2
56548252,0,0,2
56564896,1,0,2
56581540,0,0,2
56598168,1,1,2
56614812,9,0,2
56631460,4,1,2
56648096,0,0,2
56664728,9,0,2
56681368,16,0,2
56699064,16,1,2
56716732,1,0,2
56733372,4,0,2
56750000,16,0,2
56767700,9,1,2
56784340,9,0,2
56800976,0,1,2
56817608,9,0,2
56834260,4,0,2
56850900,1,0,2
56867536,0,1,2
56884176,1,1,2
56900824,4,1,2
56917448,1,0,2
56934088,1,0,2
56950728,36,1,2
56968424,64,0,2
56986100,16,1,2
57003776,0,0,2
57020412,1,0,2
57037060,1,0,2
57053696,1,0,2
57070336,16,0,2
57088020,0,0,2
57104660,4,0,2
57121312,1,1,2
57137928,0,0,2
57154576,1,0,2
57171220,0,0,2
57187864,1,0,2
57204496,1,0,2
57221140,4,0,2
57237776,4,0,2
57254420,9,1,2
57271064,4,0,2
57287700,25,0,2
57305380,144,4,2
57324096,25,9,2
57341776,4,0,2
57358420,25,0,2
57376096,16,0,2
57393768,0,4,2
57410420,1,0,2
57427068,4,1,2
57443708,1,0,2
57460340,9,0,2
57476980,16,1,2
57494664,0,0,2
57511296,1,0,2
57527940,4,0,2
57544568,4,0,2
57561216,16,0,2
57578908,16,1,2
57596572,0,1,2
57613212,0,0,2
57629856,0,0,2
57646500,4,0,2
57663128,1,0,2
57679776,4,1,2
57696420,9,1,2
57713056,1,0,2
57729696,1,0,2
57746328,16,0,2
57764024,9,1,2
57780664,1,4,2
57797292,4,0,2
57813936,9,0,2
57830576,1,0,2
57847208,16,0,2
57864888,49,0,2
57882568,81,4,2
57900256,36,16,2
57918976,0,1,2
57935620,9,0,2
57952248,9,0,2
57968900,4,0,2
57985536,1,0,2
58002180,4,0,2
58018808,0,1,2
58035460,0,0,2
58052100,1,0,2
58068740,1,0,2
58085364,4,0,2
58102024,9,0,2
58118656,16,4,2
58136340,25,4,2
58154016,9,0,2
58170656,0,0,2
58187296,0,0,2
58203932,0,0,2
58220580,9,0,2
58237216,16,0,2
58254892,4,0,2
58271532,0,1,2
58288180,0,0,2
58304820,0,0,2
58321460,0,0,2
58338096,0,0,2
58354740,4,0,2
58371376,4,1,2
58388016,0,0,2
58404656,0,0,2
58421300,16,1,2
58438980,36,0,2
58456664,9,1,2
58473300,4,0,2
58489940,4,0,2
58506588,0,0,2
58523216,4,0,2
58539852,16,0,2
58557544,9,0,2
58574180,16,0,2
58591860,9,1,2
58608492,0,1,2
58625136,1,0,2
58641780,4,0,2
58658412,0,0,2
58675064,4,0,2
58691700,25,0,2
58709376,16,0,2
58727052,9,0,2
58743700,1,0,2
58760340,0,0,2
58776988,0,0,2
58793620,0,0,2
58810252,0,0,2
58826900,4,0,2
58843536,1,1,2
58860172,0,0,2
58876820,1,0,2
58893460,4,0,2
58910100,0,1,2
58926744,4,0,2
58943380,0,0,2
58960016,0,1,2
58976660,1,0,2
58993300,1,1,2
59009932,4,0,2
59026580,9,1,2
59043220,4,1,2
59059860,1,0,2
59076488,0,0,2
59093140,0,0,2
59109784,16,0,2
59127468,49,1,2
59145140,9,1,2
59161788,0,0,2
59178420,0,0,2
59195052,1,0,2
59211684,0,0,2
59228340,4,0,2
59244968,1,0,2
59261612,0,0,2
59278248,0,0,2
59294912,1,0,2
59311540,16,0,2
59329224,36,1,2
59346888,1,0,2
59363540,4,0,2
59380184,0,1,2
59396816,0,0,2
59413444,0,0,2
59430096,0,0,2
59446740,4,0,2
59463372,64,1,2
59481048,100,4,2
59499792,16,1,2
59517468,0,0,2
59534088,4,0,2
59550740,9,0,2
59567380,0,1,2
59584016,16,0,2
59601688,16,4,2
59619388,1,1,2
59636024,0,0,2
59652656,36,0,2
59670340,64,4,2
59688020,1,4,2
59704660,9,0,2
59721304,4,0,2
59737940,0,0,2
59754592,1,0,2
59771220,9,0,2
59787856,1,0,2
59804488,0,0,2
59821144,4,1,2
59837780,1,0,2
59854428,4,1,2
59871068,16,1,2
59888740,0,0,2
59905380,25,0,2
59923060,1,4,2
59939700,1,0,2
59956340,0,1,2
59972988,1,0,2
59989616,4,0,2
60006252,9,1,2
60022900,36,1,2
60040584,4,1,2
60057220,0,4,5
60073864,25,16,5
60092592,49,1,5
60110248,0,0,5
60126900,9,4,5
60143536,1,4,5
60160188,9,9,5
60176824,0,1,5
60193460,0,1,5
60210100,9,1,5
60226752,16,16,5
60245464,1,16,5
60263148,4,0,5
60279776,9,49,5
60297456,4,81,5
60315136,0,4,5
60331780,9,9,5
60348404,9,144,5
60367148,36,169,5
60386900,25,49,5
60405612,25,441,5
60425388,49,625,5
60445132,81,324,5
60464888,81,36,5
60483624,9,289,5
60502336,16,100,5
60522092,81,169,5
60541860,144,484,5
60562664,400,25,5
60582436,256,169,5
60603212,36,25,5
60621944,100,25,5
60641700,1,9,5
60658344,0,441,5
60677056,9,361,5
60695776,36,36,5
60714500,16,400,5
60734252,49,121,5
60754020,121,25,5
60773780,16,81,5
60792500,4,49,5
60810176,0,4,5
60826832,25,0,5
60844500,1,196,5
60863224,16,400,5
60882980,100,625,5
60903784,196,529,5
60924560,196,1089,5
60946400,169,2025,5
60968260,169,121,5
60989052,64,144,5
61008816,9,0,5
61025476,4,256,5
61044172,36,169,5
61063936,25,0,5
61081620,25,1,5
61099304,16,1,5
61116976,0,0,5
61133620,1,4,5
61150264,0,0,5
61166900,1,0,5
61183532,36,1,5
61201208,36,0,5
61218896,4,121,5
61237628,36,49,5
61256340,25,36,5
61275048,0,81,5
61292736,25,16,5
61311456,25,49,5
61330188,9,324,5
61348900,36,289,5
61368672,36,64,5
61387380,1,9,5
61404020,4,0,5
61420656,16,0,5
61438336,0,25,5
61456024,4,169,5
61474736,0,16,5
61492428,1,1,5
61509052,0,1,5
61525688,0,0,5
61542328,0,0,5
61558980,0,1,5
61575612,0,4,5
61592248,0,0,5
61608888,0,1,5
61625552,1,1,5
61642168,0,0,5
61658812,0,1,5
61675448,36,4,5
61693140,169,36,5
61712904,100,64,5
61732652,64,16,5
61751384,36,4,5
61769060,0,9,5
61785712,4,4,5
61802344,0,4,5
61818976,9,256,5
61837696,0,529,5
61856424,25,4,5
61874088,16,4,5
61891792,1,49,5
61909456,49,81,5
61928180,36,9,5
61945848,9,4,5
61962504,0,4,5
61979140,0,9,5
61995772,4,9,5
62012412,0,25,5
62030108,25,16,5
62048812,1,100,5
62067540,9,121,5
62086256,0,9,5
62102908,1,4,5
62119536,0,9,5
62136184,9,1,5
62152824,36,9,5
62170500,49,4,5
62188176,25,0,5
62205852,1,1,5
62222496,0,4,5
62239140,0,1,5
62255780,4,169,5
62274492,49,324,5
62294252,100,324,5
62315068,1,400,5
62333780,121,16,5
62353548,9,36,5
62371236,1,16,5
62388896,25,4,5
62406568,0,169,5
62425296,9,100,5
62444020,9,729,5
62462740,36,1444,5
62483552,169,324,5
62504352,25,16,5
62523060,0,81,5
62540724,1,16,5
62558420,25,144,5
62578184,121,324,5
62598976,16,16,5
62617704,16,9,5
62635384,9,361,5
62654096,16,361,5
62673852,9,121,5
62692588,225,25,5
62712348,169,49,5
62732092,169,289,5
62752904,81,64,5
62771620,0,4,5
62788248,0,900,5
62806960,1,2116,5
62826736,100,529,5
62847544,121,400,5
62868340,0,289,5
62887068,4,49,5
62904736,1,625,5
62923456,4,1764,5
62943204,289,961,5
62964032,484,289,5
62984816,361,324,5
63005604,256,144,5
63026424,36,25,5
63045156,1,9,5
63061772,25,576,5
63081548,121,676,5
63102336,144,36,5
63122096,0,25,5
63139776,0,64,5
63157460,25,484,5
63177224,16,0,5
63194896,121,100,5
63215700,64,64,5
63234432,9,64,5
63252100,81,4,5
63269772,9,169,5
63288500,0,0,5
63305136,25,484,5
63324900,4,361,5
63343608,121,64,5
63363384,64,0,5
63381044,100,81,5
63400816,4,289,5
63419540,49,289,5
63439312,49,529,5
63459064,1,36,5
63476724,0,484,5
63495456,9,81,5
63513128,16,36,5
63531868,9,25,5
63549552,1,49,5
63567216,49,121,5
63586976,0,16,5
63604656,64,4,5
63622340,9,196,5
63641060,16,256,5
63660808,100,81,5
63680580,64,100,5
63700352,25,25,5
63719068,16,0,5
63736736,0,25,5
63754424,4,81,5
63772100,4,0,5
63788728,64,576,5
63808492,121,784,5
63829300,64,9,5
63846976,25,16,5
63865696,1,1,5
63882348,1,1,5
63898980,1,0,5
63915620,1,4,5
63932256,0,4,5
63948904,16,25,5
63967628,25,16,5
63986340,4,16,5
64004016,9,4,5
64020660,25,4,5
64038340,0,0,5
64054976,0,9,5
64071612,1,4,5
64088260,0,0,5
64104892,36,36,5
64123620,100,196,5
64144432,49,225,5
64164176,4,121,5
64182904,16,289,5
64202656,100,484,5
64223464,144,324,5
64244264,169,576,5
64265060,81,64,5
64283776,4,100,5
64302500,16,25,5
64321220,25,16,5
64339932,16,121,5
64359696,25,36,5
64378412,0,9,5
64395060,25,1,5
64412748,16,64,5
64431460,0,25,5
64449132,4,4,5
64465780,1,4,5
64482428,1,4,5
64499068,4,0,5
64515688,9,9,5
64532332,0,9,5
64548988,1,36,5
64566668,4,0,5
64583292,0,16,5
64600980,1,25,5
64618660,0,9,5
64635304,0,1,5
64651940,1,1,5
64668576,0,4,5
64685224,4,4,5
64701860,1,0,5
64718488,0,9,5
64735132,0,16,5
64752824,0,144,5
64771540,25,729,5
64791292,144,144,5
64812104,81,0,5
64829784,49,9,5
64847464,25,16,5
64866180,25,0,5
64883860,4,4,5
64900500,4,0,5
64917132,64,121,5
64936892,81,81,5
64955620,49,4,5
64973300,0,0,5
64989944,16,144,5
65009708,0,400,5
65028428,4,100,5
65047132,4,36,5
65064812,1,529,5
65083536,0,2809,5
65103288,81,625,5
65123052,144,0,5
65141780,0,9,5
65158424,0,144,5
65177128,16,81,5
65195852,0,1,5
65212500,4,9,5
65229148,9,16,5
65246816,64,0,5
65264496,9,81,5
65282176,4,64,5
65299860,16,16,5
65318584,1,0,5
65335216,9,36,5
65352912,1,16,5
65370576,9,9,5
65387208,4,36,5
65404896,25,196,5
65424660,16,100,5
65444408,9,16,5
65462092,4,36,5
65479780,0,0,5
65496432,1,4,5
65513064,9,1,5
65529696,9,9,5
65546348,0,9,5
65562980,0,49,5
65580656,4,144,5
65599376,9,16,5
65617064,0,1,5
65633700,0,1,5
65650332,4,0,5
65666968,16,25,5
65685708,16,100,5
65705456,9,4,5
65722104,0,9,5
65738740,9,1,5
65755384,1,81,5
65773064,1,1,5
65789700,0,64,5
65807388,0,64,5
65825060,1,0,5
65841700,16,81,5
65860420,25,25,5
65879148,0,0,5
65895776,0,16,5
65913460,9,64,5
65931144,9,1,5
65947788,0,81,5
65965468,4,36,5
65983140,9,25,5
66000816,1,0,5
66017472,1,121,5
66036180,0,100,5
66054896,9,25,5
66072564,16,9,5
66090272,16,9,5
66107956,4,49,5
66125620,1,0,5
66142264,0,16,5
66159948,1,16,5
66177616,4,25,5
66195304,1,9,5
66211948,1,0,5
66228592,1,4,5
66245220,1,225,5
66263928,1,256,5
66282664,1,0,5
66299300,0,16,5
66316976,9,25,5
66334656,0,1,5
66351308,1,16,5
66368976,4,4,5
66385624,4,9,5
66402260,0,4,5
66418908,1,49,5
66436580,49,100,5
66456340,16,0,5
66474016,0,81,5
66491704,0,64,5
66509380,0,4,5
66526024,0,4,5
66542660,0,25,5
66560340,1,64,5
66578024,4,64,5
66595704,1,1,5
66612348,0,0,5
66628980,4,9,5
66645612,16,1,5
66663312,9,1,5
66679956,0,9,5
66696588,1,9,5
66713212,4,9,5
66729860,1,16,5
66747548,0,169,5
66766260,25,25,5
66784984,16,9,5
66802648,0,0,5
66819296,9,4,5
66835936,1,16,5
66853620,1,1,5
66870252,4,4,5
66886896,1,0,5
66903528,4,0,5
66920172,1,0,5
66936808,1,1,5
66953456,0,64,5
66971140,1,289,5
66989860,9,16,5
67007548,4,0,5
67024180,1,49,5
67041860,9,100,5
67060572,16,16,5
67079304,0,4,5
67095948,1,1,5
67112576,0,36,5
67130256,1,25,5
67147940,1,9,5
67164576,9,9,5
67181220,9,1,5
67197852,9,1,5
67214504,1,4,5
67231144,1,4,5
67247780,16,0,5
67265448,64,16,5
67284176,25,36,5
67302896,0,16,5
67320568,0,0,5
67337204,4,0,5
67353856,4,0,5
67370500,1,0,5
67387136,0,4,5
67403776,0,16,5
67421472,0,25,5
67439148,0,9,5
67455780,0,1,5
67472424,4,4,5
67489060,4,9,5
67505704,1,25,5
67523368,0,36,5
67541060,1,1,5
67557704,9,9,5
67574328,0,0,5
67590976,1,25,5
67608660,0,25,5
67626348,4,9,5
67642976,16,64,5
67661696,0,0,5
67678352,9,0,5
67694980,4,1,5
67711612,4,25,5
67729296,1,121,5
67748016,4,36,5
67765688,1,0,5
67782328,0,16,5
67800000,4,49,5
67817708,9,9,5
67834340,4,4,5
67850980,0,1,5
67867612,0,0,5
67884268,1,9,5
67900888,0,16,5
67918572,1,25,5
67936264,1,36,5
67953940,1,1,5
67970580,1,16,5
67988260,0,1,5
68004900,0,4,5
68021540,1,4,5
68038180,0,9,5
68054812,0,25,5
68072504,9,0,5
68089140,0,225,5
68107860,25,289,5
68127616,0,0,5
68144260,1,64,5
68161944,9,4,5
68178572,36,121,5
68198332,64,25,5
68217064,16,0,5
68234748,0,4,5
68251376,0,36,5
68269048,0,49,5
68286740,9,25,5
68304416,4,196,5
68323140,25,64,5
68341860,81,9,5
68359544,4,25,5
68377224,16,64,5
68395936,1,0,5
68412588,0,9,5
68429224,0,9,5
68445848,9,9,5
68462496,1,196,5
68481228,16,256,5
68500984,9,9,5
68517616,1,64,5
68535292,0,4,5
68551940,4,225,5
68570668,49,289,5
68590412,4,81,5
68608096,49,4,5
68625780,16,9,5
68643464,4,1,5
68660104,9,64,5
68677784,0,16,5
68695460,0,64,5
68713144,1,81,5
68730816,9,0,5
68747472,4,36,5
68765132,4,16,5
68782820,25,4,5
68800488,25,1,5
68818192,9,1,5
68834816,16,9,5
68852496,4,81,5
68870180,1,1,5
68886820,1,4,5
68903456,0,25,5
68921140,4,49,5
68938832,9,36,5
68956500,4,16,5
68974172,16,100,5
68993936,9,289,5
69012668,9,36,5
69030344,0,1,5
69046976,1,0,5
69063604,1,36,5
69081296,0,256,5
69100016,36,256,5
69119780,49,144,5
69139548,1,1,5
69156180,0,4,5
69172820,1,0,5
69189456,0,16,5
69207140,4,4,5
69223784,4,121,5
69242500,0,9,5
69259136,0,4,5
69275792,16,36,5
69294500,25,100,5
69314264,4,49,5
69331924,0,81,5
69349620,0,36,5
69367292,0,25,5
69384988,0,49,5
69402668,0,1,5
69419300,1,4,5
69435952,1,1,5
69452572,0,0,5
69469220,0,0,5
69485864,4,1,5
69502508,16,25,5
69521212,49,225,5
69540984,121,64,5
69560740,36,1764,5
69581528,169,576,5
69602344,196,16,5
69622108,0,16,5
69639784,16,36,5
69658492,49,324,5
69678268,9,169,5
69696976,4,0,5
69713620,1,0,5
69730252,25,4,5
69747940,16,64,5
69766656,1,324,5
69785376,25,225,5
69805144,81,144,5
69824900,64,25,5
69843616,1,100,5
69862336,9,100,5
69881076,16,25,5
69899772,9,225,5
69918496,25,256,5
69938256,49,49,5
69956988,36,9,5
69974664,25,121,5
69994408,9,36,5
70012104,0,16,5
70029772,0,4,5
70046412,0,9,5
70063044,0,9,3
70079708,9,1,3
70096344,36,16,3
70115060,0,49,3
70132728,0,4,3
70149380,16,0,3
70167060,0,0,3
70183688,36,0,3
70201392,256,0,3
70220112,400,4,3
70238820,81,0,3
70256492,64,121,3
70276264,196,49,3
70296012,225,0,3
70314732,81,0,3
70332412,4,9,3
70349060,64,36,3
70367784,36,4,3
70385452,0,4,3
70402104,144,4,3
70420816,324,0,3
70439552,49,1,3
70457220,25,1,3
70474896,1,4,3
70491536,4,0,3
70508180,1,4,3
70524820,4,4,3
70541456,0,0,3
70558100,9,4,3
70574736,9,1,3
70591384,81,9,3
70609064,1,25,3
70626744,256,1,3
70645464,169,1,3
70664184,9,0,3
70680832,100,1,3
70699552,9,0,3
70716176,169,0,3
70734904,49,4,3
70752580,4,0,3
70769212,16,4,3
70786892,64,4,3
70804580,4,25,3
70822268,9,49,3
70839944,1,144,3
70858656,225,36,3
70878416,256,9,3
70897132,36,4,3
70914816,36,121,3
70934580,81,16,3
70953300,121,16,3
70973056,16,0,3
70990736,36,4,3
71008424,81,4,3
71026104,1,1,3
71042748,121,1,3
71061456,196,25,3
71081212,100,4,3
71099940,64,0,3
71117620,36,25,3
71136340,4,4,3
71152980,0,4,3
71169624,49,9,3
71187292,400,0,3
71206024,100,16,3
71225772,196,16,3
71245532,169,1,3
71264252,81,0,3
71281948,25,9,3
71299616,25,4,3
71317296,0,16,3
71334984,81,1,3
71352668,4,1,3
71369304,64,4,3
71386980,16,4,3
71404660,16,1,3
71422340,49,1,3
71440028,1,1,3
71456652,25,0,3
71474348,16,0,3
71492024,25,4,3
71509692,16,49,3
71528412,1,100,3
71547140,16,36,3
71565864,9,4,3
71582492,169,0,3
71601216,529,121,3
71622016,169,256,3
71642816,1,81,3
71660488,64,4,3
71678180,196,1,3
71696900,25,9,3
71714584,49,25,3
71733308,225,1,3
71752020,100,36,3
71771772,16,25,3
71790496,9,4,3
71807140,64,4,3
71824820,1,4,3
71841452,4,1,3
71858100,36,0,3
71875792,121,1,3
71894496,36,16,3
71913220,4,1,3
71929852,0,1,3
71946500,9,4,3
71963136,0,1,3
71979772,4,0,3
71996412,0,4,3
72013056,4,0,3
72029692,100,0,3
72048416,121,1,3
72067140,0,1,3
72083780,1,0,3
72100420,0,0,3
72117056,64,1,3
72134740,121,9,3
72153468,256,25,3
72173220,100,25,3
72192976,9,0,3
72209620,49,4,3
72227292,16,9,3
72244980,0,36,3
72262652,9,81,3
72280340,289,49,3
72300108,225,1,3
72318824,1,1,3
72335460,16,0,3
72353144,64,1,3
72370816,529,4,3
72389532,64,1,3
72407224,169,4,3
72425944,49,1,3
72443624,49,9,3
72461292,121,4,3
72480020,0,1,3
72496664,0,0,3
72513300,100,0,3
72532024,144,9,3
72550740,4,4,3
72567376,0,9,3
72584020,49,9,3
72601700,49,0,3
72619384,0,1,3
72636020,169,1,3
72654736,256,0,3
72673468,196,0,3
72692176,144,1,3
72710900,9,0,3
72727524,0,9,3
72744184,1,1,3
72760812,25,4,3
72778504,144,1,3
72797224,361,0,3
72815940,81,9,3
72833620,0,16,3
72851300,36,25,3
72870032,100,4,3
72888740,36,0,3
72906412,1,1,3
72923052,64,0,3
72940744,169,4,3
72959452,4,0,3
72976104,64,1,3
72993772,256,0,3
73012508,289,9,3
73031220,16,4,3
73048900,1,4,3
73065540,25,4,3
73083220,16,4,3
73100892,0,0,3
73117536,0,1,3
73134184,100,0,3
73152904,441,1,3
73171616,225,9,3
73190336,100,9,3
73209064,49,16,3
73227768,9,4,3
73244420,225,4,3
73263140,256,4,3
73281860,169,4,3
73300580,49,25,3
73319300,9,4,3
73335944,1,36,3
73353620,225,25,3
73373384,256,4,3
73392088,0,0,3
73408736,169,16,3
73428504,36,0,3
73446180,36,4,3
73463860,49,16,3
73482584,25,36,3
73501304,100,1,3
73520020,1,1,3
73536656,25,1,3
73554340,9,0,3
73570976,9,0,3
73587616,9,0,3
73604276,4,0,3
73620908,25,0,3
73638584,81,1,3
73656252,16,0,3
73673940,0,4,3
73690568,4,9,3
73707220,1,1,3
73723844,64,4,3
73741556,225,1,3
73760256,324,16,3
73780012,36,1,3
73797700,1,0,3
73814348,25,0,3
73832012,0,1,3
73848660,1,1,3
73865312,16,0,3
73882988,36,1,3
73900660,25,0,3
73918336,16,0,3
73936024,16,4,3
73953700,25,16,3
73972420,49,4,3
73990088,289,9,3
74008820,100,9,3
74027556,0,4,3
74044180,225,0,3
74062908,121,1,3
74081628,1,4,3
74098264,49,0,3
74115944,36,36,3
74134656,9,16,3
74152340,1,1,3
74168968,25,0,3
74186652,16,0,3
74204340,9,4,3
74220972,25,4,3
74238660,1,0,3
74255288,25,0,3
74272984,0,1,3
74289620,25,1,3
74307300,36,1,3
74324976,1,0,3
74341628,0,1,3
74358260,81,4,3
74375936,144,16,3
74395704,16,1,3
74413380,16,9,3
74431060,4,25,3
74448732,289,1,3
74467464,289,9,3
74486184,49,9,3
74503856,49,1,3
74521524,100,0,3
74540260,0,4,3
74556904,9,4,3
74573544,16,0,3
74591216,16,0,3
74608904,4,1,3
74625536,81,4,3
74643224,144,0,3
74661948,81,1,3
74679624,0,36,3
74697304,4,9,3
74713944,49,0,3
74731632,9,16,3
74749308,9,4,3
74765940,16,0,3
74783620,1,0,3
74800260,36,4,3
74817940,16,9,3
74835620,1,1,3
74852252,0,0,3
74868888,0,0,3
74885540,9,1,3
74902184,1,1,3
74918816,121,1,3
74937548,196,4,3
74956252,81,1,3
74973940,36,9,3
74991612,36,0,3
75009296,16,4,3
75026980,16,36,3
75045692,16,25,3
75064416,0,0,3
75081060,0,16,3
75098732,4,9,3
75115372,49,4,3
75133056,64,4,3
75150740,4,0,3
75167384,4,1,3
75184012,4,0,3
75200664,16,4,3
75218344,64,0,3
75236020,144,9,3
75254732,324,16,3
75274496,289,0,3
75293228,144,1,3
75311940,1,1,3
75328584,121,0,3
75347308,0,0,3
75363944,16,9,3
75381628,64,1,3
75399296,169,0,3
75418020,81,4,3
75435700,4,4,3
75452332,25,0,3
75470020,100,1,3
75488744,36,9,3
75506424,36,0,3
75524084,256,1,3
75542824,196,9,3
75561544,49,1,3
75579212,81,0,3
75596912,196,4,3
75615620,64,1,3
75633296,100,16,3
75653044,400,16,3
75672824,64,9,3
75690496,1,0,3
75707132,9,4,3
75723784,25,9,3
75741464,64,9,3
75759152,196,9,3
75777860,16,4,3
75795560,1,1,3
75812184,0,4,3
75828812,4,0,3
75845452,0,4,3
75862112,49,1,3
75879784,169,16,3
75899532,144,9,3
75918248,25,0,3
75935952,64,4,3
75953616,4,25,3
75971304,144,1,3
75990012,144,25,3
76009780,49,1,3
76027448,36,1,3
76045128,49,0,3
76062820,49,1,3
76080508,1,1,3
76097136,36,1,3
76114816,9,0,3
76131460,0,0,3
76148108,0,4,3
76164740,36,0,3
76182424,196,0,3
76201152,144,1,3
76219864,0,36,3
76237544,25,9,3
76255220,0,4,3
76271872,121,16,3
76291624,625,25,3
76311376,256,16,3
76331140,64,0,3
76348828,100,9,3
76367544,144,1,3
76386248,169,25,3
76406028,36,1,3
76423708,225,0,3
76442412,324,25,3
76462180,49,4,3
76479864,16,4,3
76497536,81,4,3
76515212,361,0,3
76533940,529,1,3
76552652,49,16,3
76571384,36,1,3
76589048,9,36,3
76606752,0,4,3
76623396,16,4,3
76641056,144,4,3
76659780,64,4,3
76677460,9,0,3
76694092,1,4,3
76710736,36,1,3
76728420,169,1,3
76747148,25,1,3
76764824,25,1,3
76782496,16,1,3
76800188,36,1,3
76817864,169,0,3
76836576,169,25,3
76856336,100,16,3
76876096,81,4,3
76893788,0,4,3
76910412,36,0,3
76928112,9,0,3
76944744,25,0,3
76962412,16,9,3
76980096,49,4,3
76997784,256,0,3
77016504,361,1,3
77035216,169,16,3
77054968,4,9,3
77071624,121,0,3
77090348,64,36,3
77109064,1,144,3
77127784,0,100,3
77146508,0,64,3
77164168,0,16,3
77181856,4,4,3
77198500,36,36,3
77217224,144,4,3
77235940,64,1,3
77253616,16,0,3
77271304,169,16,3
77291064,100,49,3
77310820,0,9,3
77327464,25,0,3
77345152,16,0,3
77362820,144,4,3
77381536,225,16,3
77401308,196,64,3
77421060,1,49,3
77438736,100,1,3
77457468,1,4,3
77474108,9,9,3
77490748,4,4,3
77507376,289,4,3
77526104,729,16,3
77545872,196,9,3
77564580,36,1,3
77582256,16,9,3
77599940,9,4,3
77616588,16,1,3
77634264,1,1,3
77650900,256,1,3
77669616,400,9,3
77688344,484,16,3
77708088,196,36,3
77727876,36,1,3
77745540,324,16,3
77765300,36,4,3
77782984,4,9,3
77799628,121,0,3
77818336,196,16,3
77838104,64,0,3
77855788,0,4,3
77872420,0,1,3
77889068,121,9,3
77907780,225,0,3
77926500,225,16,3
77946272,16,9,3
77963940,81,0,3
77981608,64,4,3
77999296,0,0,3
78015940,144,4,3
78034656,121,0,3
78053384,4,0,3
78070016,0,0,3
78086660,25,9,3
78104336,1,9,3
78120976,4,1,3
78137620,64,0,3
78155308,289,9,3
78174024,100,9,3
78192760,1,1,3
78209396,1,36,3
78227060,1,36,3
78244752,4,9,3
78261384,25,0,3
78279060,1,4,3
78295700,64,0,3
78313376,100,4,3
78332112,1,1,3
78348736,100,0,3
78367452,25,1,3
78385132,16,1,3
78402820,49,1,3
78420516,1,4,3
78437128,169,0,3
78455860,64,9,3
78473540,0,0,3
78490180,1,0,3
78506812,16,9,3
78524508,49,4,3
78542180,144,4,3
78560892,49,9,3
78578580,36,0,3
78596260,25,0,3
78613948,9,4,3
78630576,36,4,3
78648248,0,4,3
78664912,9,9,3
78681540,9,9,3
78698168,64,0,3
78715844,25,1,3
78733540,1,4,3
78750180,1,4,3
78766820,4,0,3
78783444,0,1,3
78800100,36,1,3
78817788,25,0,3
78835452,36,4,3
78853148,49,9,3
78870816,144,4,3
78889536,529,4,3
78908256,81,9,3
78925944,64,9,3
78943624,81,16,3
78962328,64,0,3
78980008,81,1,3
78997708,49,4,3
79015372,0,0,3
79032016,100,0,3
79050732,100,0,3
79069456,25,0,3
79087144,64,1,3
79104816,100,4,3
79123548,49,1,3
79141220,100,4,3
79159928,36,4,3
79177620,1,0,3
79194256,1,0,3
79210900,0,0,3
79227532,0,0,3
79244168,4,0,3
79260824,25,4,3
79278504,49,4,3
79296184,9,1,3
79312804,0,0,3
79329460,0,0,3
79346100,0,4,3
79362744,4,0,3
79379360,16,0,3
79397060,16,1,3
79414736,100,0,3
79433448,196,1,3
79452184,64,1,3
79469868,1,1,3
79486504,4,0,3
79503144,9,0,3
79519788,16,1,3
79537456,0,0,3
79554096,49,4,3
79571776,144,25,3
79591544,169,9,3
79610268,196,4,3
79628980,25,4,3
79646648,0,1,3
79663304,64,1,3
79680972,225,9,3
79699700,9,1,3
79716336,81,4,3
79734028,4,0,3
79750664,16,1,3
79768332,36,0,3
79786024,64,1,3
79803712,16,4,3
79821380,1,0,3
79838008,0,0,3
79854660,1,4,3
79871304,9,1,3
79887940,4,0,3
79904584,0,0,3
79921232,1,1,3
79937860,0,4,3
79954492,0,0,3
79971132,0,0,3
79987792,36,0,3
80005468,144,16,3
80025220,16,4,3
80042900,0,1,3
80059540,0,0,5
80076192,4,9,5
80092816,0,1,5
80109452,16,0,5
80127148,1,1,5
80143788,0,0,5
80160416,0,4,5
80177056,1,0,5
80193712,0,0,5
80210336,9,25,5
80228020,9,4,5
80244656,121,16,5
80264432,100,9,5
80283136,121,9,5
80301856,169,9,5
80320588,4,0,5
80337216,100,49,5
80356980,36,169,5
80376736,4,16,5
80394428,4,25,5
80412092,1,16,5
80429780,4,1,5
80446416,36,36,5
80465148,4,1,5
80481776,25,169,5
80501548,0,16,5
80519224,1,16,5
80536896,0,64,5
80554596,25,576,5
80574340,121,1444,5
80596168,25,36,5
80614888,16,2116,5
80635700,36,196,5
80655468,25,64,5
80674180,81,25,5
80692892,324,169,5
80713692,144,36,5
80733460,81,169,5
80753220,1,729,5
80771940,196,81,5
80791708,81,225,5
80811456,1,25,5
80829120,25,961,5
80848884,256,3136,5
80870740,289,961,5
80891540,225,49,5
80911284,16,0,5
80928984,1,25,5
80946664,9,16,5
80964336,1,484,5
80983056,81,1936,5
81003864,100,36,5
81023616,1,1089,5
81043372,49,1444,5
81064176,4,36,5
81081852,0,784,5
81100580,16,49,5
81119304,64,676,5
81139052,0,169,5
81157772,9,1,5
81174424,9,4,5
81191076,4,16,5
81208752,1,36,5
81226420,4,9,5
81243052,49,81,5
81261788,25,9,5
81279464,4,225,5
81298168,25,121,5
81317944,25,9,5
81335628,4,1,5
81352260,0,144,5
81370984,9,9,5
81387636,0,196,5
81406344,81,1,5
81424012,36,36,5
81442728,25,36,5
81461460,1,324,5
81480180,25,2500,5
81500980,16,2209,5
81521792,4,16,5
81539460,81,625,5
81559212,81,0,5
81576892,16,100,5
81596660,0,169,5
81615384,1,1,5
81632012,49,1444,5
81652816,676,1089,5
81674660,900,16,5
81694412,225,81,5
81714180,81,100,5
81733948,144,9,5
81752656,36,49,5
81771372,16,16,5
81790100,121,121,5
81810892,361,64,5
81830660,121,9,5
81849388,49,1,5
81867068,64,49,5
81885780,36,9,5
81903452,36,0,5
81921144,9,81,5
81938828,4,81,5
81956496,64,121,5
81976252,0,441,5
81994984,121,121,5
82015796,121,4,5
82034512,25,1,5
82052176,4,225,5
82070904,9,1089,5
82090648,36,49,5
82109372,36,169,5
82129136,0,25,5
82146820,4,4,5
82163456,1,64,5
82181148,4,484,5
82199852,25,484,5
82219620,16,1764,5
82240416,9,1681,5
82260180,64,256,5
82279936,4,81,5
82297620,16,4,5
82315300,100,4,5
82334020,1,81,5
82351704,36,324,5
82371460,16,9,5
82389148,36,4,5
82406824,64,49,5
82425532,64,4,5
82443208,25,4,5
82460904,0,36,5
82478572,0,36,5
82496256,0,25,5
82513956,25,0,5
82531628,64,0,5
82549292,289,4,5
82568012,25,1,5
82585708,64,36,5
82604428,169,196,5
82625216,9,25,5
82642892,36,0,5
82660584,36,4,5
82678260,16,16,5
82696988,9,1,5
82713624,36,9,5
82731300,9,36,5
82748980,1,49,5
82766660,1,9,5
82783292,1,289,5
82802016,1,1600,5
82821772,9,1024,5
82841532,36,121,5
82861304,1,121,5
82880024,9,16,5
82897704,1,36,5
82915380,9,9,5
82932020,64,36,5
82950740,121,81,5
82970496,0,16,5
82988168,16,841,5
83007932,49,676,5
83027700,196,121,5
83048508,25,121,5
83068260,25,1,5
83085932,225,0,5
83104668,36,4,5
83122348,9,9,5
83138996,25,1,5
83156652,0,49,5
83174320,16,16,5
83193060,4,9,5
83209700,4,0,5
83226336,36,4,5
83244020,9,36,5
83261712,1,1,5
83278340,16,9,5
83296020,16,0,5
83313696,16,36,5
83332420,36,225,5
83352176,1,36,5
83369856,4,4,5
83386504,25,36,5
83405220,16,100,5
83424968,0,81,5
83442656,4,1,5
83459304,9,144,5
83478008,49,225,5
83497784,100,484,5
83518576,49,484,5
83538348,16,361,5
83558108,49,1,5
83575768,49,64,5
83594508,144,9,5
83613224,441,25,5
83632980,100,25,5
83652748,36,144,5
83672496,0,256,5
83691220,16,169,5
83710972,1,121,5
83729700,9,196,5
83748416,25,4,5
83766096,4,289,5
83784828,0,1089,5
83804576,16,256,5
83824336,9,9,5
83840972,9,81,5
83858668,16,49,5
83877380,4,0,5
83894012,1,4,5
83910664,1,16,5
83928344,0,4,5
83944992,16,1,5
83962656,144,49,5
83982420,49,49,5
84001136,49,9,5
84018824,169,9,5
84037532,36,0,5
84055224,4,16,5
84072896,0,9,5
84089532,4,4,5
84106168,1,1,5
84122820,64,25,5
84141528,81,25,5
84160264,4,4,5
84176900,1,1,5
84193540,25,16,5
84212264,9,25,5
84229940,1,81,5
84247636,1,4,5
84264264,0,100,5
84282984,9,36,5
84300660,4,1,5
84317304,0,1,5
84333948,1,9,5
84350584,4,1,5
84367212,1,4,5
84383860,4,0,5
84400496,9,9,5
84417128,25,25,5
84435860,25,225,5
84455628,9,225,5
84474336,49,49,5
84493056,36,4,5
84510744,0,49,5
84528420,16,36,5
84547136,4,4,5
84563780,0,16,5
84581468,1,4,5
84598092,0,0,5
84614728,9,9,5
84631372,16,1,5
84649060,25,36,5
84667788,9,0,5
84684420,36,16,5
84703128,1,25,5
84720816,0,9,5
84737452,0,9,5
84754100,1,49,5
84771768,16,64,5
84790500,25,4,5
84808168,4,0,5
84824808,0,36,5
84842492,4,100,5
84861228,9,16,5
84878888,0,0,5
84895528,0,81,5
84913232,0,324,5
84931940,16,144,5
84951708,16,1,5
84969372,0,9,5
84986020,4,1,5
85002660,9,0,5
85019292,0,4,5
85035940,16,1,5
85053628,16,16,5
85072332,0,4,5
85088976,4,16,5
85106644,0,9,5
85123300,0,0,5
85139928,9,36,5
85157616,9,144,5
85176348,9,16,5
85194028,4,9,5
85210668,9,49,5
85228336,9,25,5
85246016,1,36,5
85263712,1,36,5
85281376,9,0,5
85298024,0,1,5
85314668,4,9,5
85331300,4,36,5
85348984,9,16,5
85366660,9,4,5
85383304,9,0,5
85399936,0,1,5
85416580,0,36,5
85434260,4,1,5
85450900,0,0,5
85467544,0,9,5
85484180,1,16,5
85501852,0,0,5
85518500,0,4,5
85535144,9,4,5
85551780,4,1,5
85568416,1,9,5
85585060,9,36,5
85602740,1,9,5
85619384,1,0,5
85636008,9,4,5
85652660,1,4,5
85669288,4,4,5
85685932,9,4,5
85702576,4,0,5
85719224,4,4,5
85735856,0,1,5
85752500,1,9,5
85769128,4,0,5
85785780,4,1,5
85802420,1,9,5
85819056,0,4,5
85835684,0,25,5
85853392,1,1,5
85870012,16,0,5
85887692,0,0,5
85904324,4,9,5
85920980,0,64,5
85938656,1,49,5
85956336,1,64,5
85974012,0,16,5
85991700,1,1,5
86008348,0,0,5
86024968,9,9,5
86041624,16,100,5
86061376,0,16,5
86079056,25,0,5
86096740,16,1,5
86114420,1,49,5
86132108,25,361,5
86151848,81,900,5
86171612,64,676,5
86191376,36,36,5
86210088,16,25,5
86228820,1,49,5
86246508,0,9,5
86263148,0,1,5
86279784,25,16,5
86298492,121,81,5
86318260,64,25,5
86336976,16,4,5
86354656,0,49,5
86372332,0,256,5
86391068,1,144,5
86409780,1,16,5
86427460,4,9,5
86444100,0,196,5
86462828,36,441,5
86482568,64,64,5
86501296,25,36,5
86520032,9,144,5
86538740,9,49,5
86556416,1,1,5
86573064,1,64,5
86590752,1,1,5
86607384,0,1,5
86624012,0,1,5
86640660,0,0,5
86657300,9,9,5
86673948,4,49,5
86691616,1,16,5
86709296,1,0,5
86725944,4,1,5
86742576,1,16,5
86760264,1,1,5
86776908,1,25,5
86794592,4,4,5
86811212,1,289,5
86829940,9,196,5
86848672,16,1,5
86866340,1,9,5
86882984,0,9,5
86899616,0,36,5
86917300,16,4,5
86934980,16,9,5
86952648,0,9,5
86969284,0,0,5
86985940,9,36,5
87003620,4,81,5
87021300,4,4,5
87037936,1,0,5
87054584,0,1,5
87071212,4,0,5
87087860,9,1,5
87104496,4,1,5
87121144,9,9,5
87137784,4,49,5
87155464,4,25,5
87173148,1,4,5
87189780,0,9,5
87206416,9,16,5
87224092,4,9,5
87240740,1,1,5
87257380,1,9,5
87274020,0,49,5
87291700,1,36,5
87309388,16,9,5
87327072,16,0,5
87344740,0,4,5
87361372,0,1,5
87378020,0,1,5
87394660,4,9,5
87411300,9,16,5
87428968,1,36,5
87446668,1,225,5
87465376,16,36,5
87484100,4,0,5
87500728,0,4,5
87517380,4,4,5
87534020,25,9,5
87551700,1,0,5
87568340,1,1,5
87584980,4,9,5
87601612,0,16,5
87619292,4,0,5
87635932,0,16,5
87653620,9,1,5
87670260,9,64,5
87687936,0,0,5
87704572,1,25,5
87722260,1,1,5
87738908,4,0,5
87755536,1,25,5
87773220,0,49,5
87790908,0,16,5
87808568,1,81,5
87826264,16,400,5
87846028,16,225,5
87865772,0,9,5
87882416,4,9,5
87899060,0,9,5
87915716,1,0,5
87932336,1,256,5
87951052,25,841,5
87970812,49,484,5
87990580,81,81,5
88009300,49,1,5
88026984,9,9,5
88043628,1,25,5
88061300,36,25,5
88080016,16,256,5
88099772,9,25,5
88117460,0,121,5
88136180,25,81,5
88154900,1,0,5
88171548,1,9,5
88188180,4,4,5
88204832,4,0,5
88221448,0,0,5
88238100,1,0,5
88254736,1,0,5
88271388,1,0,5
88288012,1,0,5
88304656,0,4,5
88321296,1,0,5
88337948,1,0,5
88354584,16,1,5
88372256,36,81,5
88390988,9,225,5
88409688,4,81,5
88427380,9,9,5
88444028,4,1,5
88460668,4,0,5
88477292,16,1,5
88494968,49,36,5
88513708,1,4,5
88530340,81,0,5
88548020,49,16,5
88566728,81,324,5
88586500,81,196,5
88606260,121,4,5
88624972,64,16,5
88643700,9,121,5
88662416,0,576,5
88681140,25,529,5
88700896,81,1,5
88718580,16,0,5
88736264,4,64,5
88753944,1,225,5
88772672,4,4,5
88789300,16,25,5
88808016,9,25,5
88825684,25,529,5
88845460,9,961,5
88864180,25,100,5
88883944,9,1,5
88900568,0,9,5
88917224,9,4,5
88933856,16,4,5
88951540,36,169,5
88971308,169,169,5
88992112,49,0,5
89009784,4,4,5
89026416,9,0,5
89043060,4,64,5
89060748,4,0,5
89077384,1,49,5
89095060,0,144,5
89113780,0,256,5
89132504,25,36,5
89151224,16,25,5
89169948,1,64,5
89187628,9,81,5
89205296,1,49,5
89222976,4,289,5
89241704,4,484,5
89260416,0,121,5
89279132,0,0,5
89295776,1,81,5
89313460,16,144,5
89333208,36,0,5
89350904,9,16,5
89368584,9,9,5
89385236,49,9,5
89402908,9,400,5
89421612,16,1369,5
89442428,100,169,5
89463224,25,49,5
89481940,16,144,5
89501700,1,0,5
89518340,1,81,5
89536020,16,1,5
89553692,1,25,5
89571384,0,25,5
89589068,1,0,5
89605692,0,4,5
89622336,1,0,5
89638988,4,1,5
89655628,9,0,5
89672252,9,0,5
89688900,4,9,5
89705544,0,121,5
89724264,0,9,5
89740892,0,4,5
89757536,0,1,5
89774180,0,1,5
89790828,1,1,5
89807464,1,9,5
89824096,0,25,5
89841780,1,49,5
89859460,1,16,5
89877128,0,4,5
89893776,1,9,5
89910432,1,1,5
89927060,0,100,5
89945780,4,144,5
89964492,9,36,5
89982184,9,4,5
89998820,4,0,5
90015456,0,4,5
90032088,0,0,5
90048740,0,0,5
90065384,0,0,3
90082020,0,1,3
90098652,0,0,3
90115296,1,0,3
90131932,4,1,3
90148572,1,0,3
90165204,0,0,3
90181868,0,16,3
90199536,0,9,3
90216168,0,4,3
90232812,1,1,3
90249456,0,0,3
90266092,0,0,3
90282736,4,0,3
90299376,1,1,3
90316024,0,36,3
90333700,0,81,3
90351376,9,16,3
90369068,64,0,3
90386740,36,0,3
90404408,484,9,3
90423128,121,25,3
90442900,4,4,3
90459540,36,9,3
90477212,49,9,3
90494896,49,1,3
90512580,400,4,3
90531292,36,25,3
90550012,25,1,3
90567712,36,1,3
90585376,4,0,3
90602020,16,0,3
90619700,4,0,3
90636344,9,0,3
90652980,144,1,3
90671700,49,1,3
90689384,16,4,3
90707068,1,1,3
90723708,81,4,3
90741380,36,16,3
90760092,9,9,3
90776736,4,0,3
90793380,1,1,3
90810024,36,4,3
90827692,49,0,3
90845380,1,4,3
90862012,0,1,3
90878664,0,1,3
90895292,1,9,3
90911936,1,4,3
90928576,1,0,3
90945224,64,1,3
90962888,25,4,3
90980588,4,4,3
90997208,9,1,3
91013848,64,0,3
91031532,64,0,3
91049220,9,0,3
91065852,121,4,3
91084572,36,1,3
91102264,1,0,3
91118916,0,4,3
91135544,9,0,3
91152168,4,25,3
91169864,9,4,3
91186516,0,4,3
91203144,4,16,3
91220824,16,4,3
91238504,9,1,3
91255140,16,0,3
91272820,64,4,3
91290500,1,16,3
91308184,0,1,3
91324824,4,1,3
91341460,36,4,3
91359132,1,0,3
91375784,16,1,3
91393460,64,0,3
91411144,81,0,3
91428812,9,0,3
91445460,0,9,3
91462096,1,9,3
91478732,0,9,3
91495368,36,9,3
91513060,36,0,3
91530740,16,1,3
91548420,121,0,3
91567140,81,1,3
91584820,16,9,3
91602500,25,4,3
91620184,64,4,3
91637868,16,1,3
91655552,0,4,3
91672176,36,0,3
91689852,25,1,3
91707540,0,0,3
91724180,4,0,3
91740820,49,9,3
91758488,36,4,3
91776180,36,25,3
91794896,25,16,3
91813620,0,0,3
91830248,0,0,3
91846900,0,4,3
91863536,16,1,3
91881220,1,4,3
91897840,9,0,3
91914500,9,1,3
91931140,16,4,3
91948820,144,25,3
91968588,25,16,3
91987300,4,1,3
92003932,9,0,3
92020584,0,0,3
92037236,9,1,3
92053860,4,1,3
92070492,0,4,3
92087132,64,4,3
92104820,121,0,3
92123540,25,4,3
92141216,1,4,3
92157860,36,1,3
92175540,144,4,3
92194252,36,9,3
92211936,1,0,3
92228572,16,0,3
92246260,49,0,3
92263936,81,9,3
92281624,25,1,3
92299296,16,4,3
92316976,4,0,3
92333608,0,4,3
92350260,16,1,3
92367944,16,1,3
92385620,36,0,3
92403292,81,4,3
92420984,9,9,3
92437620,0,1,3
92454264,0,1,3
92470892,0,0,3
92487540,9,1,3
92504188,25,25,3
92522904,1,9,3
92539532,36,16,3
92558256,9,25,3
92575948,25,0,3
92593620,64,1,3
92611296,64,1,3
92628976,81,1,3
92646668,1,0,3
92663296,16,16,3
92682020,9,0,3
92698664,4,9,3
92715304,4,1,3
92731948,9,1,3
92748580,225,25,3
92768336,361,49,3
92788100,49,4,3
92805780,0,1,3
92822420,1,0,3
92839072,1,1,3
92855696,1,9,3
92872328,0,4,3
92888980,0,4,3
92905616,9,0,3
92922260,16,0,3
92939936,0,1,3
92956576,36,9,3
92974268,81,0,3
92991940,49,4,3
93009612,9,1,3
93026244,0,0,3
93042900,9,1,3
93059544,49,0,3
93077216,36,16,3
93095920,0,25,3
93113620,1,0,3
93130268,64,4,3
93147940,121,9,3
93166664,9,4,3
93183296,0,0,3
93199932,4,0,3
93216572,1,1,3
93233220,25,0,3
93250904,36,9,3
93268572,121,16,3
93288340,49,4,3
93306020,25,0,3
93323700,25,0,3
93341380,16,1,3
93359056,1,1,3
93375704,25,0,3
93393384,16,9,3
93411056,16,36,3
93429776,64,16,3
93448496,16,0,3
93466180,1,9,3
93482812,9,1,3
93499468,1,1,3
93516104,64,1,3
93533772,144,9,3
93552504,100,9,3
93571228,169,1,3
93589936,81,9,3
93607612,25,9,3
93625280,81,0,3
93642980,64,4,3
93660664,36,9,3
93678332,16,1,3
93696020,9,0,3
93712660,9,4,3
93729312,49,9,3
93746980,4,1,3
93763620,1,1,3
93780256,4,0,3
93796896,9,0,3
93813544,100,1,3
93832260,169,4,3
93850988,4,9,3
93867612,0,0,3
93884260,0,1,3
93900900,0,4,3
93917536,16,1,3
93935212,16,0,3
93952900,4,0,3
93969548,25,0,3
93987228,144,4,3
94005932,36,4,3
94023616,36,1,3
94041300,9,9,3
94057936,36,0,3
94075620,49,16,3
94094328,9,4,3
94110980,0,0,3
94127620,16,0,3
94145296,81,9,3
94162980,25,16,3
94181704,0,0,3
94198340,1,4,3
94214980,0,0,3
94231628,1,1,3
94248256,4,0,3
94264892,0,9,3
94281540,1,0,3
94298188,16,4,3
94315860,1,0,3
94332492,0,1,3
94349140,1,0,3
94365784,0,0,3
94382420,0,4,3
94399052,81,0,3
94416740,144,9,3
94435460,9,4,3
94452112,169,1,3
94470828,1,4,3
94487456,144,1,3
94506180,100,0,3
94524904,36,4,3
94542572,0,0,3
94559212,1,0,3
94575876,9,1,3
94592504,49,25,3
94611220,25,9,3
94628904,36,0,3
94646576,256,0,3
94665300,121,4,3
94684028,25,0,3
94701712,49,0,3
94719396,1,1,3
94736024,0,0,3
94752664,64,1,3
94770336,4,9,3
94786976,0,0,3
94803616,4,0,3
94820248,25,9,3
94837940,81,4,3
94855612,25,9,3
94873296,49,0,3
94890972,169,0,3
94909708,169,1,3
94928424,169,1,3
94947132,36,0,3
94964828,64,16,3
94983544,64,0,3
95001216,0,4,3
95017852,1,1,3
95034512,1,1,3
95051152,25,1,3
95068824,16,1,3
95086492,0,0,3
95103140,1,4,3
95119788,1,1,3
95136412,0,4,3
95153056,1,4,3
95169712,9,0,3
95186340,0,0,3
95202972,16,1,3
95220656,1,4,3
95237312,25,4,3
95254984,4,1,3
95271612,81,0,3
95289284,36,0,3
95306984,16,0,3
95324660,16,4,3
95342328,25,0,3
95360028,0,0,3
95376660,100,0,3
95395372,16,0,3
95413056,9,1,3
95429700,49,1,3
95447380,196,1,3
95466096,4,1,3
95482736,16,1,3
95500432,4,4,3
95517068,16,1,3
95534736,81,1,3
95552412,64,0,3
95570112,49,1,3
95587776,81,0,3
95605460,25,0,3
95623136,169,16,3
95642908,25,9,3
95660588,9,0,3
95677216,16,9,3
95694908,36,9,3
95712580,25,9,3
95730260,4,9,3
95746900,25,1,3
95764580,4,4,3
95781220,4,1,3
95797864,0,1,3
95814500,4,0,3
95831140,4,0,3
95847780,49,4,3
95865452,9,4,3
95882100,1,0,3
95898744,4,0,3
95915380,9,1,3
95932008,0,9,3
95948648,16,0,3
95966340,25,1,3
95984020,9,1,3
96000652,81,1,3
96018336,100,4,3
96037060,4,4,3
96053700,4,0,3
96070332,4,0,3
96086976,1,1,3
96103624,100,1,3
96122336,64,9,3
96140024,36,1,3
96157684,100,4,3
96176420,1,0,3
96193068,16,1,3
96210740,49,0,3
96228428,289,1,3
96247136,100,4,3
96265848,0,4,3
96282488,0,9,3
96299144,4,1,3
96315780,4,0,3
96332420,0,0,3
96349052,0,0,3
96365696,4,0,3
96382336,0,4,3
96398980,25,1,3
96416660,9,1,3
96433300,4,0,3
96449952,4,0,3
96466588,16,4,3
96484260,25,1,3
96501952,9,1,3
96518572,25,1,3
96536264,16,1,3
96553936,25,4,3
96571620,0,4,3
96588256,0,1,3
96604900,36,0,3
96622572,0,1,3
96639232,121,16,3
96658988,36,36,3
96677692,0,0,3
96694344,0,1,3
96710980,100,0,3
96729692,400,9,3
96748408,121,9,3
96767140,0,4,3
96783780,4,0,3
96800412,16,4,3
96818092,25,4,3
96835788,121,9,3
96854500,256,9,3
96873212,64,4,3
96890900,0,0,3
96907544,1,1,3
96924192,25,0,3
96941864,49,1,3
96959540,49,4,3
96977220,49,0,3
96994892,25,0,3
97012568,0,0,3
97029220,36,0,3
97046900,121,0,3
97065612,81,1,3
97083292,25,1,3
97100976,0,0,3
97117620,9,4,3
97134256,36,0,3
97151932,25,1,3
97169620,100,0,3
97188332,144,4,3
97207056,64,4,3
97224740,121,16,3
97244500,64,25,3
97263220,1,9,3
97279856,0,1,3
97296504,64,4,3
97314188,121,9,3
97332900,4,4,3
97349536,1,1,3
97366180,25,64,3
97384896,81,144,3
97404652,100,25,3
97424420,676,4,3
97443136,121,16,3
97462888,4,0,3
97479532,100,9,3
97498264,49,9,3
97515948,64,1,3
97533624,64,9,3
97551292,0,0,3
97567948,1,1,3
97584572,49,0,3
97602252,100,0,3
97620964,25,0,3
97638668,1,0,3
97655304,100,0,3
97674024,256,1,3
97692740,121,1,3
97711464,16,1,3
97729136,9,1,3
97745780,36,4,3
97763456,4,16,3
97781148,49,9,3
97798820,81,0,3
97816488,64,1,3
97834184,100,4,3
97852900,121,16,3
97872652,36,4,3
97890340,1,0,3
97906976,4,0,3
97923624,4,0,3
97940260,9,1,3
97956896,0,4,3
97973544,1,1,3
97990188,1,0,3
98006820,64,9,3
98024512,225,9,3
98043224,100,9,3
98061944,9,4,3
98078580,4,1,3
98095220,121,0,3
98113948,225,9,3
98132660,49,9,3
98150336,1,1,3
98166980,1,0,3
98183628,4,1,3
98200268,0,0,3
98216884,36,9,3
98234576,0,16,3
98252252,36,0,3
98269932,81,9,3
98287628,0,4,3
98304268,36,1,3
98321948,0,4,3
98338584,4,0,3
98355220,64,1,3
98372896,81,1,3
98390588,36,1,3
98408256,0,1,3
98424900,4,0,3
98441544,0,4,3
98458180,0,4,3
98474820,64,0,3
98492504,81,0,3
98510176,9,1,3
98526816,36,0,3
98544496,0,0,3
98561136,9,0,3
98577788,1,0,3
98594424,36,4,3
98612104,9,16,3
98629780,81,0,3
98647464,81,4,3
98665136,1,0,3
98681760,0,0,3
98698416,1,0,3
98715056,1,4,3
98731696,0,16,3
98749372,16,4,3
98767056,49,4,3
98784744,9,1,3
98801372,100,1,3
98820088,25,4,3
98837784,1,0,3
98854420,1,0,3
98871060,25,4,3
98888744,81,16,3
98907464,64,4,3
98925132,361,25,3
98944892,100,49,3
98964676,1,1,3
98981296,64,0,3
98998976,9,0,3
99015608,4,0,3
99032264,144,1,3
99050976,100,9,3
99069700,4,0,3
99086332,16,4,3
99104024,16,1,3
99121704,36,0,3
99139380,25,0,3
99157064,81,1,3
99174744,169,9,3
99193456,144,1,3
99212172,49,1,3
99229860,64,1,3
99247544,64,0,3
99265220,1,4,3
99281852,9,0,3
99298500,0,1,3
99315152,1,0,3
99331780,49,1,3
99349448,36,1,3
99367140,25,0,3
99384820,1,1,3
99401464,121,0,3
99420180,121,4,3
99438904,1,4,3
99455532,16,0,3
99473220,81,1,3
99490904,81,1,3
99508580,25,0,3
99526264,49,1,3
99543932,36,1,3
99561620,1,0,3
99578260,0,1,3
99594900,1,4,3
99611548,16,1,3
99629228,36,0,3
99646892,1,0,3
99663536,1,0,3
99680160,16,0,3
99697864,16,1,3
99715532,225,0,3
99734252,64,1,3
99751940,0,0,3
99768588,100,0,3
99787308,81,1,3
99804980,16,1,3
99822668,16,4,3
99840352,225,1,3
99859056,256,9,3
99877776,169,1,3
99896496,1,0,3
99913128,4,0,3
99929772,4,1,3
99946420,1,1,3
99963064,4,0,3
99979700,49,1,3
99997368,49,0,3
100015048,49,0,3
100033780,100,0,3
100053544,169,4,3
100073300,256,9,7
100093060,256,16,7
100113856,196,16,7
100134664,49,9,7
100153380,9,1,7
100171060,9,0,7
100188732,9,0,7
100206420,1,0,7
100224104,1,1,7
100241780,1,4,7
100259452,4,1,7
100277140,1,0,7
100294820,16,1,7
100313544,36,0,7
100332256,169,4,7
100352024,36,1,7
100370740,9,0,7
100388416,25,0,7
100407140,16,4,7
100425860,4,9,7
100443544,1,4,7
100461212,9,0,7
100478888,0,1,7
100496580,4,0,7
100514264,0,1,7
100531944,0,16,7
100550648,0,1,7
100568348,4,0,7
100586028,49,4,7
100604728,49,4,7
100623468,0,4,7
100641148,64,1,7
100659860,9,4,7
100677532,36,0,7
100696272,100,4,7
100716012,1,4,7
100733700,25,4,7
100752420,144,169,7
100774268,9,625,7
100794008,25,256,7
100814812,25,784,7
100835628,1,3600,7
100856420,144,1089,7
100879280,64,100,7
100900096,49,144,7
100920900,16,36,7
100940660,9,0,7
100958344,9,1,7
100976020,4,36,7
100994740,4,9,7
101012416,4,1,7
101030108,9,4,7
101047780,4,4,7
101065452,1,1,7
101083132,4,9,7
101100820,0,1,7
101118508,4,1,7
101136168,4,0,7
101153868,1,0,7
101171548,4,0,7
101189220,0,0,7
101206900,0,1,7
101224576,0,0,7
101242256,0,0,7
101259932,1,0,7
101277608,0,0,7
101295304,0,1,7
101312976,0,0,7
101330656,1,0,7
101348332,1,0,7
101366020,0,0,7
101383712,0,1,7
101401372,0,0,7
101419060,0,0,7
101436736,0,0,7
101454420,0,0,7
101472096,0,0,7
101489780,0,0,7
101507460,1,1,7
101525128,0,0,7
101542808,1,0,7
101560500,1,0,7
101578172,0,0,7
101595848,0,0,7
101613528,25,0,7
101632260,81,4,7
101650976,36,9,7
101669692,0,1,7
101687380,0,0,7
101705056,0,0,7
101722744,1,1,7
101740420,1,0,7
101758112,0,1,7
101775780,0,0,7
101793460,1,0,7
101811136,0,0,7
101828828,0,0,7
101846496,0,0,7
101864172,0,0,7
101881848,0,0,7
101899548,1,0,7
101917220,0,0,7
101934892,0,0,7
101952580,1,0,7
101970260,0,0,7
101987932,1,0,7
102005620,0,0,7
102023296,0,0,7
102040976,0,0,7
102058648,0,0,7
102076336,1,0,7
102094020,0,0,7
102111692,0,0,7
102129372,0,0,7
102147044,0,0,7
102164740,0,0,7
102182420,0,0,7
102200092,0,0,7
102217780,0,0,7
102235464,0,0,7
102253140,0,0,7
102270816,0,0,7
102288500,0,0,7
102306176,1,0,7
102323848,0,0,7
102341528,1,0,7
102359224,9,1,7
102376896,4,0,7
102394584,0,0,7
102412244,0,0,7
102429936,0,0,7
102447624,1,0,7
102465292,0,1,7
102482976,0,0,7
102500660,0,0,7
102518328,0,0,7
102536020,1,0,7
102553712,0,1,7
102571388,0,0,7
102589052,0,0,7
102606732,0,0,7
102624416,0,0,7
102642088,0,0,7
102659768,0,0,7
102677444,0,0,7
102695136,0,0,7
102712820,0,0,7
102730500,0,0,7
102748176,1,0,7
102765860,1,0,7
102783532,0,0,7
102801212,0,0,7
102818900,0,0,7
102836580,0,0,7
102854252,0,0,7
102871932,0,0,7
102889620,0,0,7
102907304,1,1,7
102924968,0,0,7
102942644,1,1,7
102960336,1,1,7
102978012,1,0,7
102995696,4,1,7
103013384,1,1,7
103031068,1,0,7
103048736,0,0,7
103066412,0,0,7
103084100,0,0,7
103101780,0,0,7
103119448,0,0,7
103137132,0,1,7
103154820,0,0,7
103172500,0,0,7
103190172,0,0,7
103207844,0,0,7
103225536,0,0,7
103243212,0,0,7
103260892,0,0,7
103278572,0,0,7
103296256,1,0,7
103313940,1,0,7
103331612,0,0,7
103349300,0,0,7
103366980,0,0,7
103384660,1,0,7
103402328,0,0,7
103420020,1,0,7
103437700,0,0,7
103455376,1,0,7
103473052,0,1,7
103490740,0,0,7
103508416,0,1,7
103526092,0,0,7
103543764,0,0,7
103561472,0,1,7
103579140,0,0,7
103596808,0,0,7
103614504,0,1,7
103632184,0,0,7
103649860,0,0,7
103667540,0,0,7
103685216,0,0,7
103702900,0,0,7
103720572,0,0,7
103738264,0,1,7
103755940,0,0,7
103773624,1,0,7
103791292,0,0,7
103808972,1,0,7
103826660,0,4,7
103844332,0,1,7
103862012,0,1,7
103879700,1,0,7
103897384,0,1,7
103915048,0,0,7
103932732,0,0,7
103950428,0,0,7
103968100,1,0,7
103985768,4,0,7
104003448,1,0,7
104021144,0,0,7
104038832,0,0,7
104056500,0,0,7
104074168,0,1,7
104091872,1,0,7
104109528,0,0,7
104127212,0,0,7
104144884,0,0,7
104162580,0,0,7
104180260,0,1,7
104197932,0,0,7
104215620,0,0,7
104233304,0,0,7
104250984,0,0,7
104268652,0,0,7
104286340,0,1,7
104304020,1,0,7
104321692,0,0,7
104339364,1,0,7
104357056,0,0,7
104374736,0,1,7
104392412,0,1,7
104410084,0,0,7
104427780,0,0,7
104445460,0,0,7
104463128,0,0,7
104480824,0,0,7
104498500,0,0,7
104516180,0,0,7
104533848,0,0,7
104551540,1,0,7
104569220,0,4,7
104586892,0,1,7
104604572,0,4,7
104622260,0,4,7
104639936,4,0,7
104657612,9,0,7
104675292,4,0,7
104692980,0,0,7
104710648,1,0,7
104728332,9,1,7
104746020,9,1,7
104763700,4,0,7
104781372,0,1,7
104799060,1,1,7
104816744,1,1,7
104834420,4,0,7
104852100,1,0,7
104869784,0,0,7
104887472,0,1,7
104905140,0,0,7
104922820,1,0,7
104940496,0,0,7
104958180,0,0,7
104975852,9,0,7
104993540,4,0,7
105011220,0,0,7
105028908,1,0,7
105046572,0,0,7
105064256,0,1,7
105081932,0,4,7
105099620,0,1,7
105117288,0,0,7
105134972,0,0,7
105152660,0,0,7
105170340,0,0,7
105188012,0,1,7
105205684,4,1,7
105223380,1,0,7
105241048,1,0,7
105258732,1,0,7
105276424,0,4,7
105294100,0,1,7
105311776,4,0,7
105329452,0,0,7
105347140,1,0,7
105364820,4,1,7
105382500,1,0,7
105400172,0,0,7
105417860,1,1,7
105435536,0,9,7
105453212,1,0,7
105470888,9,1,7
105488584,4,1,7
105506248,0,0,7
105523940,9,0,7
105541604,1,0,7
105559300,0,1,7
105576988,0,0,7
105594660,0,0,7
105612340,0,0,7
105630028,1,0,7
105647692,0,0,7
105665368,0,0,7
105683056,0,0,7
105700736,0,0,7
105718412,1,0,7
105736088,0,0,7
105753780,0,0,7
105771464,0,1,7
105789132,0,1,7
105806808,0,4,7
105824500,0,1,7
105842172,0,0,7
105859860,0,1,7
105877536,0,0,7
105895220,0,1,7
105912892,0,1,7
105930572,0,0,7
105948260,0,1,7
105965940,0,1,7
105983612,0,0,7
106001292,0,0,7
106018980,1,0,7
106036660,0,0,7
106054332,0,1,7
106072004,1,0,7
106089700,9,1,7
106107380,1,0,7
106125060,0,0,7
106142744,0,4,7
106160420,0,4,7
106178092,0,1,7
106195784,1,1,7
106213460,0,0,7
106231144,0,1,7
106248808,0,0,7
106266500,0,0,7
106284172,0,0,7
106301856,0,0,7
106319532,0,0,7
106337208,1,0,7
106354896,1,0,7
106372568,0,0,7
106390252,0,4,7
106407924,0,1,7
106425616,0,0,7
106443300,1,0,7
106460972,1,0,7
106478660,1,0,7
106496340,0,0,7
106514012,0,0,7
106531688,0,0,7
106549376,0,0,7
106567068,1,0,7
106584728,0,0,7
106602404,0,0,7
106620100,0,0,7
106637772,0,0,7
106655448,1,0,7
106673128,1,0,7
106690820,0,0,7
106708508,1,0,7
106726172,0,0,7
106743860,0,0,7
106761540,0,0,7
106779208,0,0,7
106796892,0,0,7
106814580,0,0,7
106832256,0,0,7
106849928,0,0,7
106867608,1,0,7
106885300,1,1,7
106902980,0,0,7
106920652,0,0,7
106938332,1,0,7
106956016,0,0,7
106973692,0,0,7
106991372,0,1,7
107009060,0,0,7
107026740,0,0,7
107044412,0,0,7
107062092,0,0,7
107079788,1,0,7
107097464,4,1,7
107115132,4,1,7
107132824,1,1,7
107150496,0,0,7
107168172,0,0,7
107185852,1,0,7
107203528,0,1,7
107221220,0,0,7
107238892,0,1,7
107256572,0,4,7
107274264,0,1,7
107291940,0,0,7
107309612,0,0,7
107327292,0,0,7
107344980,1,0,7
107362668,1,0,7
107380328,0,0,7
107398012,0,0,7
107415700,0,0,7
107433380,0,0,7
107451048,0,0,7
107468724,0,0,7
107486420,0,0,7
107504088,0,0,7
107521772,0,0,7
107539448,0,0,7
107557140,0,0,7
107574820,4,0,7
107592492,9,0,7
107610176,0,0,7
107627860,0,0,7
107645528,0,0,7
107663208,1,0,7
107680896,1,0,7
107698580,0,0,7
107716252,0,0,7
107733924,0,0,7
107751616,0,0,7
107769292,0,1,7
107786968,0,0,7
107804644,0,0,7
107822336,0,0,7
107840020,0,1,7
107857692,0,0,7
107875380,0,0,7
107893068,1,0,7
107910732,1,0,7
107928412,0,0,7
107946100,0,1,7
107963780,4,1,7
107981456,1,0,7
107999128,0,0,7
108016820,0,0,7
108034500,0,0,7
108052180,0,0,7
108069848,0,1,7
108087540,0,0,7
108105216,0,1,7
108122900,0,0,7
108140576,0,0,7
108158256,0,0,7
108175940,0,0,7
108193620,0,0,7
108211300,0,0,7
108228980,0,1,7
108246660,0,0,7
108264340,0,0,7
108282028,0,0,7
108299700,0,0,7
108317380,0,0,7
108335044,0,0,7
108352736,1,0,7
108370408,1,0,7
108388100,1,0,7
108405784,0,1,7
108423460,0,0,7
108441132,0,1,7
108458816,0,0,7
108476508,1,0,7
108494188,1,0,7
108511852,1,0,7
108529532,0,0,7
108547216,1,0,7
108564896,0,0,7
108582572,0,0,7
108600244,0,0,7
108617936,0,0,7
108635612,0,0,7
108653300,0,1,7
108670964,0,0,7
108688660,0,1,7
108706336,0,0,7
108724012,0,0,7
108741700,0,0,7
108759380,0,0,7
108777064,0,0,7
108794732,0,0,7
108812420,0,0,7
108830096,1,0,7
108847776,0,4,7
108865452,1,0,7
108883136,0,0,7
108900816,0,0,7
108918496,0,0,7
108936164,0,0,7
108953856,0,0,7
108971540,0,0,7
108989212,0,0,7
109006900,0,0,7
109024580,1,1,7
109042248,0,0,7
109059936,0,0,7
109077616,0,0,7
109095300,0,0,7
109112984,0,1,7
109130652,0,0,7
109148340,0,0,7
109166012,0,0,7
109183688,0,0,7
109201364,0,1,7
109219060,0,1,7
109236728,0,0,7
109254412,0,1,7
109272100,0,0,7
109289780,0,0,7
109307460,1,0,7
109325128,0,0,7
109342816,0,0,7
109360500,0,0,7
109378172,0,0,7
109395852,0,0,7
109413540,0,0,7
109431208,0,0,7
109448888,0,0,7
109466564,1,0,7
109484260,0,0,7
109501928,0,0,7
109519612,0,0,7
109537300,0,1,7
109554976,0,0,7
109572664,1,1,7
109590332,0,0,7
109608016,4,0,7
109625708,1,0,7
109643372,0,1,7
109661048,0,0,7
109678740,0,0,7
109696420,1,0,7
109714088,0,0,7
109731772,0,0,7
109749460,0,0,7
109767132,0,0,7
109784816,1,0,7
109802484,4,0,7
109820180,1,0,7
109837860,0,0,7
109855532,0,0,7
109873220,0,0,7
109890900,0,0,7
109908572,1,0,7
109926252,1,0,7
109943940,0,0,7
109961620,0,0,7
109979288,0,0,7
109996972,0,0,7
110014660,1,0,7
110032332,0,1,7
110050012,0,0,7
110067688,0,1,1
110085380,0,0,1
110103060,0,0,1
110120736,0,1,1
110138408,0,0,1
110156100,0,0,1
110173780,1,0,1
110191448,1,0,1
110209140,1,0,1
110226820,0,0,1
110244492,0,0,1
110262172,0,0,1
110279856,0,0,1
110297528,0,0,1
110315212,0,0,1
110332888,1,0,1
110350580,1,0,1
110368248,0,0,1
110385940,1,0,1
110403628,1,0,1
110421300,1,0,1
110438976,0,0,1
110456652,0,0,1
110474344,0,1,1
110492020,0,0,1
110509692,0,0,1
110527380,0,0,1
110545068,1,0,1
110562744,0,1,1
110580412,0,1,1
110598080,0,0,1
110615780,0,1,1
110633452,0,0,1
110651132,0,0,1
110668820,0,0,1
110686496,1,0,1
110704172,0,0,1
110721852,0,0,1
110739536,0,0,1
110757220,0,1,1
110774888,1,0,1
110792576,1,0,1
110810260,0,0,1
110827936,1,0,1
110845620,1,0,1
110863288,0,1,1
110880980,0,1,1
110898664,1,1,1
110916328,0,0,1
110934004,1,0,1
110951704,0,0,1
110969384,0,1,1
110987048,0,0,1
111004748,4,0,1
111022428,1,0,1
111040096,1,0,1
111057768,0,0,1
111075456,0,0,1
111093140,0,0,1
111110808,0,0,1
111128496,1,0,1
111146192,0,0,1
111163860,0,0,1
111181536,1,0,1
111199204,0,0,1
111216896,1,0,1
111234580,0,0,1
111252252,0,1,1
111269940,0,0,1
111287620,0,0,1
111305288,0,0,1
111322968,0,0,1
111340660,0,0,1
111358344,0,4,1
111376020,0,0,1
111393692,0,0,1
111411380,1,0,1
111429052,0,1,1
111446732,0,0,1
111464404,0,0,1
111482096,0,0,1
111499768,0,0,1
111517448,0,0,1
111535140,0,0,1
111552816,1,0,1
111570492,0,0,1
111588172,0,0,1
111605860,0,0,1
111623540,1,0,1
111641220,1,0,1
111658892,0,0,1
111676576,0,0,1
111694248,0,0,1
111711936,1,0,1
111729604,0,0,1
111747304,0,0,1
111764972,0,0,1
111782652,0,1,1
111800344,0,1,1
111818016,0,0,1
111835688,0,0,1
111853368,4,0,1
111871060,4,0,1
111888740,0,0,1
111906408,0,0,1
111924092,0,0,1
111941780,1,0,1
111959456,1,0,1
111977132,0,0,1
111994804,0,0,1
112012504,0,0,1
112030180,0,0,1
112047852,0,0,1
112065524,0,0,1
112083220,0,4,1
112100904,1,0,1
112118572,1,0,1
112136260,0,0,1
112153940,0,0,1
112171608,1,0,1
112189300,1,1,1
112206976,0,0,1
112224660,1,0,1
112242340,1,0,1
112260004,0,0,1
112277700,0,0,1
112295372,0,0,1
112313064,1,0,1
112330720,0,0,1
112348420,1,0,1
112366100,0,0,1
112383780,0,0,1
112401460,0,0,1
112419140,4,0,1
112436820,1,0,1
112454492,0,0,1
112472180,0,1,1
112489860,0,0,1
112507528,0,0,1
112525208,0,0,1
112542896,0,0,1
112560568,1,0,1
112578252,0,0,1
112595924,1,0,1
112613616,0,0,1
112631304,1,0,1
112648980,0,0,1
112666660,0,0,1
112684340,0,0,1
112702016,0,1,1
112719692,0,0,1
112737376,0,0,1
112755072,1,0,1
112772740,1,0,1
112790424,0,0,1
112808100,0,0,1
112825772,0,0,1
112843448,1,0,1
112861132,0,0,1
112878832,0,1,1
112896492,0,0,1
112914172,0,0,1
112931860,0,0,1
112949536,0,0,1
112967208,0,0,1
112984900,0,0,1
113002584,0,1,1
113020260,0,0,1
113037944,0,0,1
113055620,0,0,1
113073296,0,0,1
113090980,1,1,1
113108656,1,1,1
113126332,0,0,1
113144016,0,0,1
113161692,0,0,1
113179384,1,1,1
113197048,4,1,1
113214740,1,1,1
113232420,0,0,1
113250096,0,1,1
113267780,0,0,1
113285456,0,0,1
113303128,0,0,1
113320812,0,0,1
113338500,0,0,1
113356180,0,0,1
113373852,0,0,1
113391524,1,0,1
113409224,0,1,1
113426892,0,1,1
113444568,0,0,1
113462244,0,0,1
113479940,0,0,1
113497620,0,0,1
113515304,0,1,1
113532980,0,0,1
113550660,1,0,1
113568332,0,1,1
113586012,0,1,1
113603696,0,0,1
113621376,0,0,1
113639060,1,0,1
113656736,1,0,1
113674420,1,0,1
113692096,0,0,1
113709772,0,1,1
113727444,0,0,1
113745140,0,0,1
113762820,0,0,1
113780492,0,0,1
113798176,1,0,1
113815860,0,0,1
113833532,0,0,1
113851208,1,0,1
113868908,1,0,1
113886580,0,0,1
113904252,0,0,1
113921932,1,4,1
113939620,1,1,1
113957304,0,1,1
113974980,0,0,1
113992648,0,0,1
114010340,0,0,1
114028012,0,0,1
114045688,0,0,1
114063380,0,0,1
114081068,1,0,1
114098728,0,0,1
114116416,0,1,1
114134096,0,0,1
114151768,0,0,1
114169452,1,0,1
114187132,0,0,1
114204820,0,1,1
114222500,0,0,1
114240172,0,0,1
114257844,1,0,1
114275536,0,0,1
114293212,0,0,1
114310892,0,0,1
114328576,0,0,1
114346260,0,0,1
114363936,0,0,1
114381608,1,0,1
114399300,0,0,1
114416980,0,0,1
114434660,0,0,1
114452332,0,0,1
114470016,0,0,1
114487700,0,0,1
114505372,0,0,1
114523044,0,0,1
114540740,0,0,1
114558420,1,1,1
114576092,0,0,1
114593764,0,1,1
114611464,0,1,1
114629136,0,0,1
114646812,0,0,1
114664500,0,1,1
114682180,0,0,1
114699852,1,0,1
114717528,0,0,1
114735216,4,0,1
114752900,1,0,1
114770584,0,0,1
114788248,0,0,1
114805940,0,0,1
114823620,0,0,1
114841288,0,0,1
114858964,0,0,1
114876660,0,0,1
114894340,0,0,1
114912016,0,1,1
114929696,0,0,1
114947376,0,0,1
114965060,0,0,1
114982736,1,0,1
115000420,1,1,1
115018104,1,4,1
115035772,0,1,1
115053452,0,0,1
115071140,0,0,1
115088820,0,0,1
115106488,0,0,1
115124168,0,1,1
115141860,0,0,1
115159528,0,0,1
115177216,0,0,1
115194900,0,0,1
115212576,0,0,1
115230252,0,0,1
115247932,0,0,1
115265616,0,0,1
115283308,1,0,1
115300968,0,0,1
115318652,0,0,1
115336340,0,0,1
115354020,0,0,1
115371700,0,0,1
115389372,1,0,1
115407060,1,0,1
115424732,0,0,1
115442412,0,0,1
115460084,0,0,1
115477776,1,0,1
115495460,0,0,1
115513140,0,1,1
115530820,0,0,1
115548500,0,0,1
115566172,0,0,1
115583852,0,0,1
115601540,0,0,1
115619220,0,0,1
115636892,0,0,1
115654564,0,0,1
115672256,1,0,1
115689944,1,0,1
115707620,0,0,1
115725284,0,0,1
115742980,4,0,1
115760660,4,0,1
115778328,1,0,1
115796016,1,0,1
115813696,0,0,1
115831380,0,0,1
115849060,0,0,1
115866740,0,1,1
115884420,1,0,1
115902092,4,0,1
115919772,4,4,1
115937468,1,0,1
115955140,0,0,1
115972812,0,1,1
115990488,0,1,1
116008180,0,1,1
116025860,0,0,1
116043540,0,0,1
116061224,0,1,1
116078908,0,0,1
116096580,0,0,1
116114252,0,1,1
116131940,1,1,1
116149620,4,0,1
116167304,0,0,1
116184980,0,0,1
116202660,0,0,1
116220332,1,0,1
116238012,0,1,1
116255680,0,0,1
116273380,0,0,1
116291052,1,0,1
116308728,0,0,1
116326420,0,0,1
116344108,1,0,1
116361768,4,0,1
116379460,1,0,1
116397140,0,0,1
116414816,0,0,1
116432492,0,1,1
116450172,0,1,1
116467856,0,0,1
116485544,0,1,1
116503220,0,0,1
116520892,0,0,1
116538580,0,0,1
116556252,0,0,1
116573940,0,0,1
116591604,0,0,1
116609296,0,0,1
116626980,0,0,1
116644652,0,0,1
116662336,0,0,1
116680020,1,0,1
116697704,0,0,1
116715380,0,0,1
116733060,0,0,1
116750740,0,0,1
116768408,1,0,1
116786084,0,0,1
116803776,0,0,1
116821448,0,0,1
116839128,0,0,1
116856804,0,0,1
116874500,0,0,1
116892184,1,0,1
116909848,0,0,1
116927536,0,0,1
116945220,0,0,1
116962888,0,0,1
116980572,0,0,1
116998260,1,0,1
117015940,0,0,1
117033616,0,1,1
117051288,0,0,1
117068980,0,0,1
117086652,0,0,1
117104340,0,0,1
117122004,0,0,1
117139700,0,1,1
117157368,0,0,1
117175048,0,0,1
117192740,0,0,1
117210420,0,1,1
117228092,0,0,1
117245772,0,0,1
117263460,0,1,1
117281140,1,0,1
117298808,0,0,1
117316492,0,0,1
117334188,1,0,1
117351856,1,0,1
117369536,1,0,1
117387216,1,0,1
117404896,0,0,1
117422572,0,1,1
117440252,0,0,1
117457936,0,0,1
117475620,0,0,1
117493292,0,0,1
117510976,0,0,1
117528660,0,0,1
117546340,0,1,1
117564012,0,0,1
117581700,0,0,1
117599380,0,0,1
117617060,0,0,1
117634740,0,0,1
117652400,1,0,1
117670096,1,0,1
117687772,0,0,1
117705448,1,0,1
117723124,1,0,1
117740816,0,0,1
117758504,0,0,1
117776172,0,1,1
117793864,0,0,1
117811540,0,0,1
117829212,0,0,1
117846888,0,0,1
117864576,0,0,1
117882256,0,0,1
117899932,0,0,1
117917604,0,0,1
117935296,0,0,1
117952980,1,0,1
117970656,0,0,1
117988328,0,0,1
118006020,0,0,1
118023704,0,1,1
118041372,0,0,1
118059060,0,0,1
118076740,0,1,1
118094420,0,0,1
118112100,1,0,1
118129780,0,0,1
118147460,1,0,1
118165128,0,0,1
118182812,4,0,1
118200508,1,0,1
118218172,0,0,1
118235848,0,0,1
118253528,0,0,1
118271228,1,0,1
118288892,0,1,1
118306576,0,1,1
118324260,0,0,1
118341940,0,0,1
118359608,0,0,1
118377300,1,0,1
118394976,0,0,1
118412660,0,0,1
118430332,0,0,1
118448012,0,0,1
118465696,0,0,1
118483372,0,0,1
118501052,0,0,1
118518724,0,0,1
118536420,0,0,1
118554092,1,0,1
118571780,0,0,1
118589464,0,0,1
118607136,1,0,1
118624812,1,0,1
118642488,0,0,1
118660180,1,0,1
118677856,0,0,1
118695528,4,0,1
118713212,1,0,1
118730896,0,0,1
118748576,4,0,1
118766252,0,0,1
118783924,0,0,1
118801620,0,0,1
118819292,0,0,1
118836980,0,0,1
118854644,0,0,1
118872336,0,0,1
118890028,0,4,1
118907692,0,0,1
118925376,1,0,1
118943060,1,0,1
118960740,0,0,1
118978412,0,0,1
118996100,0,0,1
119013780,0,0,1
119031452,0,0,1
119049136,0,0,1
119066820,0,0,1
119084492,0,1,1
119102172,0,0,1
119119848,1,0,1
119137540,0,0,1
119155220,0,0,1
119172892,0,0,1
119190584,0,0,1
119208268,0,0,1
119225944,0,1,1
119243612,0,0,1
119261296,0,0,1
119278980,0,0,1
119296652,0,0,1
119314332,0,0,1
119332016,0,0,1
119349704,0,0,1
119367380,0,0,1
119385052,0,0,1
119402740,0,0,1
119420412,0,1,1
119438092,0,0,1
119455780,0,0,1
119473460,0,0,1
119491132,0,0,1
119508812,0,0,1
119526500,0,1,1
119544176,0,0,1
119561848,0,0,1
119579532,0,0,1
119597220,1,0,1
119614892,9,1,1
119632584,1,1,1
119650252,1,0,1
119667936,0,0,1
119685612,0,0,1
119703304,1,0,1
119720976,0,0,1
119738660,0,1,1
119756332,0,0,1
119774008,0,0,1
119791696,1,0,1
119809380,1,0,1
119827052,1,0,1
119844740,0,0,1
119862432,1,1,1
119880100,4,1,1
119897780,4,0,1
119915456,1,0,1
119933148,0,0,1
119950816,0,0,1
119968488,1,0,1
119986172,1,0,1
120003856,1,0,1
120021548,1,0,1
120039208,0,1,1
120056900,0,0,6
120074580,1,1,6
120092252,0,0,6
120109928,0,0,6
120127624,0,1,6
120145300,0,0,6
120162976,0,0,6
120180648,0,1,6
120198336,0,0,6
120216012,0,1,6
120233692,0,0,6
120251364,0,0,6
120269056,0,0,6
120286748,1,0,6
120304408,0,0,6
120322096,0,0,6
120339776,0,0,6
120357448,1,0,6
120375144,1,0,6
120392816,0,0,6
120410500,0,1,6
120428168,0,0,6
120445852,1,0,6
120463548,0,0,6
120481220,0,0,6
120498896,0,0,6
120516564,0,0,6
120534264,0,0,6
120551932,0,0,6
120569616,1,0,6
120587300,0,0,6
120604980,1,0,6
120622652,1,1,6
120640332,0,0,6
120658016,0,0,6
120675700,0,4,6
120693372,1,1,6
120711052,4,0,6
120728736,0,0,6
120746420,100,1,6
120766184,361,0,6
120785952,169,1,6
120805700,144,0,6
120825468,16,0,6
120844172,49,9,6
120862900,9,1,6
120880588,16,169,6
120901376,121,121,6
120923224,36,9,6
120941952,0,0,6
120959624,36,4,6
120978340,0,1,6
120996016,324,0,6
121015780,196,9,6
121035536,121,0,6
121055308,324,0,6
121075056,1,0,6
121092732,676,16,6
121113528,1521,81,6
121135380,961,81,6
121156188,16,9,6
121174884,676,81,6
121195696,324,16,6
121216500,0,1,6
121234192,16,0,6
121252900,49,9,6
121271620,100,36,6
121292420,100,49,6
121313216,529,9,6
121332980,196,36,6
121353780,4,4,6
121371456,4,1,6
121389144,729,1,6
121408904,784,16,6
121429688,1681,49,6
121451532,2304,100,6
121474408,900,81,6
121495204,13689,225,6
121519140,14161,1024,6
121544092,625,121,6
121565936,121,4,6
121585676,1849,361,6
121608576,7056,441,6
121631464,2401,49,6
121653296,225,25,6
121674100,400,4,6
121693860,441,0,6
121713604,64,9,6
121732348,2116,1,6
121753128,1296,121,6
121776020,9,16,6
121794748,1,4,6
121812408,1225,169,6
121835280,1521,324,6
121858180,256,49,6
121878972,16,0,6
121897688,81,36,6
121917432,1369,100,6
121940340,49,289,6
121961124,961,9,6
121980900,5625,196,6
122003780,2025,196,6
122026656,121,144,6
122048488,1156,64,6
122070348,2116,16,6
122092172,9,100,6
122111932,1296,9,6
122132744,625,289,6
122154564,576,1,6
122174336,36,225,6
122195120,25281,289,6
122219040,0,2116,6
122239844,8836,676,6
122262736,361,81,6
122283552,2025,1,6
122304328,11449,729,6
122328248,17956,1089,6
122353200,18496,289,6
122377128,10201,729,6
122401068,64,441,6
122421864,1681,441,6
122444712,2500,121,6
122467608,6561,625,6
122490484,3364,196,6
122513352,1296,16,6
122535228,1600,196,6
122558100,81,1,6
122576792,0,324,6
122596572,16129,3136,6
122621524,16641,49,6
122644408,13456,3364,6
122669388,784,36,6
122690168,2500,1,6
122710960,12544,64,6
122733848,1681,576,6
122756712,900,36,6
122777516,2704,441,6
122800404,1849,25,6
122822240,625,16,6
122843036,484,196,6
122864892,3364,225,6
122887772,1,1,6
122905452,7225,64,6
122927300,400,9,6
122947060,625,49,6
122967856,6724,49,6
122989680,0,1156,6
123010476,11881,1225,6
123035464,625,36,6
123056264,3249,64,6
123078092,2401,100,6
123100968,1764,196,6
123123864,961,64,6
123144652,196,4,6
123164416,3600,36,6
123186252,1849,64,6
123208088,2601,81,6
123229928,4096,256,6
123252812,1156,9,6
123273612,24964,841,6
123297536,22500,1444,6
123322496,2809,441,6
123345380,256,64,6
123366184,2704,4,6
123386976,1849,144,6
123409856,1089,9,6
123430648,6724,4,6
123451460,14641,729,6
123475372,5329,729,6
123498260,36,0,6
123516988,9,9,6
123534664,1521,144,6
123557544,361,16,6
123578332,121,25,6
123599140,529,25,6
123619940,1936,81,6
123641772,400,0,6
123661552,100,1,6
123681300,0,16,6
123700008,2304,4,6
123720816,5776,225,6
123743696,4096,576,6
123766556,2304,121,6
123789456,1024,9,6
123810240,100,49,6
123831056,961,9,6
123850820,7744,144,6
123873696,961,121,6
123895528,6561,441,6
123918408,4489,25,6
123940248,1600,729,6
123963124,0,81,6
123981844,2916,0,6
124002636,9409,1024,6
124026568,15625,81,6
124049456,8649,64,6
124071288,18769,1444,6
124096232,10816,1600,6
124121208,4,1,6
124138892,225,4,6
124158648,1849,400,6
124181532,841,1,6
124201292,900,4,6
124221028,7225,1156,6
124244960,5184,576,6
124267852,400,1,6
124287628,1156,100,6
124310476,1764,361,6
124333376,729,1,6
124353120,3025,1,6
124373908,4356,0,6
124394732,9,144,6
124414508,841,49,6
124435280,4900,100,6
124458168,4356,361,6
124481076,4,225,6
124500816,1681,36,6
124522652,289,16,6
124543444,5625,400,6
124566320,8464,289,6
124589220,6889,121,6
124612096,529,225,6
124633936,2500,9,6
124654732,4900,324,6
124677600,6724,121,6
124700504,3364,121,6
124723388,121,100,6
124745212,2209,64,6
124767048,1600,100,6
124789928,2116,49,6
124811772,2401,289,6
124834656,144,256,6
124856508,100,4,6
124876248,1225,36,6
124898080,4624,64,6
124919928,2704,289,6
124942808,1681,225,6
124965680,3844,196,6
124988572,6724,676,6
125011456,1764,484,6
125034336,121,0,6
125054104,1764,36,6
125075940,1936,25,6
125097780,441,121,6
125119624,576,49,6
125140412,2304,49,6
125162256,1936,144,6
125185128,1369,64,6
125206968,576,16,6
125227764,576,0,6
125247548,169,36,6
125268328,3025,1,6
125289132,2704,256,6
125312024,9,36,6
125330744,100,16,6
125351544,144,0,6
125371280,169,16,6
125392092,2809,4,6
125412912,1024,225,6
125435776,676,4,6
125455544,100,16,6
125476340,484,144,6
125498184,729,1,6
125517948,1296,81,6
125539772,1296,81,6
125561612,0,25,6
125580340,484,36,6
125601148,4,25,6
125619864,324,9,6
125639616,121,25,6
125660428,64,4,6
125679140,121,4,6
125698876,10404,169,6
125722804,25281,961,6
125746728,11664,1024,6
125771684,1600,256,6
125794588,729,81,6
125815372,169,36,6
125836168,81,9,6
125854912,100,1,6
125874648,400,64,6
125895444,289,64,6
125916248,100,4,6
125936024,100,1,6
125955784,36,81,6
125975540,121,1,6
125995312,484,1,6
126015064,100,81,6
126035848,0,0,6
126053524,1225,16,6
126075380,1849,36,6
126097200,1024,64,6
126119052,2401,64,6
126140900,196,81,6
126161680,6084,81,6
126183532,7225,361,6
126206412,9,4,6
126224096,324,36,6
126244908,196,25,6
126265712,36,1,6
126284412,0,16,6
126303132,400,25,6
126323944,2809,4,6
126344740,7744,400,6
126367616,9604,324,6
126390496,1681,121,6
126413372,529,4,6
126433124,1089,64,6
126454968,5329,225,6
126477860,8100,441,6
126500728,625,169,6
126522584,0,0,6
126540268,16,1,6
126558984,9,1,6
126576668,81,49,6
126596428,9,0,6
126614100,100,1,6
126633860,0,16,6
126652580,441,4,6
126672340,16,16,6
126692084,2209,36,6
126713924,4761,196,6
126736812,64,16,6
126756560,1849,81,6
126778416,676,1,6
126798184,1156,169,6
126821060,25,0,6
126839752,1764,64,6
126861620,3600,676,6
126884480,900,25,6
126905292,961,16,6
126926088,196,121,6
126947928,2304,49,6
126969764,169,289,6
126991604,1225,16,6
127013448,4489,100,6
127036332,2025,529,6
127059216,9,4,6
127076892,3249,144,6
127099768,3364,49,6
127121616,121,100,6
127143468,4,64,6
127162180,36,1,6
127180892,625,1,6
127200664,4356,16,6
127222500,1936,169,6
127245392,49,81,6
127265156,49,0,6
127283860,784,4,6
127303608,289,36,6
127324424,121,1,6
127344176,121,4,6
127363948,676,9,6
127383700,3025,64,6
127405532,2500,289,6
127428416,784,100,6
127450264,225,81,6
127471044,1849,144,6
127493928,5184,100,6
127516820,1600,81,6
127538660,16,9,6
127557372,16,4,6
127576096,1936,9,6
127596896,4761,289,6
127619768,324,144,6
127641628,324,16,6
127662416,81,1,6
127681120,1600,4,6
127701916,6561,441,6
127724828,2116,289,6
127747696,9,16,6
127766420,0,0,6
127784100,16,25,6
127803856,625,100,6
127825692,841,121,6
127847548,16,4,6
127866276,1,0,6
127883940,1296,100,6
127906816,3025,121,6
127929692,1024,81,6
127951536,4,49,6
127970260,484,16,6
127991048,3249,225,6
128013932,7569,324,6
128036804,2025,225,6
128059704,25,25,6
128079456,196,4,6
128099220,361,9,6
128118980,196,25,6
128139780,121,25,6
128160576,361,9,6
128180344,324,16,6
128201136,961,25,6
128221936,2025,64,6
128243776,3025,144,6
128266656,729,81,6
128287448,9,4,6
128305128,289,1,6
128324908,1,16,6
128343616,9,25,6
128362340,81,9,6
128381060,289,0,6
128400804,2025,0,6
128421608,5776,225,6
128444488,225,196,6
128466348,2116,49,6
128488184,1225,49,6
128510024,484,1,6
128529772,1024,121,6
128552652,36,81,6
128572416,121,121,6
128594244,1225,1,6
128615044,3844,361,6
128637928,1089,49,6
128659792,4,16,6
128678504,1,16,6
128697208,841,9,6
128716980,2304,16,6
128738808,289,81,6
128759612,2809,25,6
128781444,1936,169,6
128804328,2209,25,6
128826172,49,49,6
128845944,25,4,6
128864652,1444,25,6
128886488,5184,324,6
128909380,441,196,6
128931220,1369,49,6
128953056,2809,144,6
128975940,225,16,6
128996732,8836,121,6
129019612,10201,625,6
129043528,11881,625,6
129067444,31329,1156,6
129092408,32761,1849,6
129117380,5476,900,6
129140256,1764,0,6
129161032,11236,256,6
129184976,4225,324,6
129207852,36,25,6
129227620,484,16,6
129248428,576,1,6
129268180,289,25,6
129288968,841,25,6
129309772,2304,64,6
129331616,841,9,6
129351372,6889,324,6
129374260,3136,256,6
129397136,4,4,6
129414812,1849,0,6
129435612,841,9,6
129455368,961,4,6
129475132,2601,400,6
129498012,64,100,6
129518828,100,81,6
129539620,2916,64,6
129561448,7744,324,6
129584320,2809,484,6
129607208,484,49,6
129628008,361,9,6
129647780,324,36,6
129668572,25,25,6
129688324,3844,144,6
129711224,10816,625,6
129735128,961,225,6
129756976,2209,36,6
129778824,484,49,6
129799616,16,4,6
129818340,196,25,6
129839140,0,25,6
129857856,81,36,6
129877600,2304,9,6
129898396,961,49,6
129919220,3136,36,6
129941052,2025,144,6
129963940,0,16,6
129982648,2601,100,6
130005544,10404,256,6
130029444,4356,256,6
130052324,25,4,6
130071048,4761,196,3
130093928,4624,361,3
130116808,5329,289,3
130139680,5929,576,3
130162568,324,441,3
130184428,361,4,3
130204188,676,100,3
130226016,121,64,3
130246824,9,25,3
130265544,900,0,3
130285300,1024,9,3
130306108,49,64,3
130325864,36,4,3
130344572,2401,16,3
130366408,4356,225,3
130389300,361,121,3
130411144,100,16,3
130431936,676,25,3
130452744,1681,49,3
130474568,144,196,3
130496408,784,0,3
130516180,361,49,3
130536992,1,9,3
130554660,64,9,3
130573376,100,0,3
130593124,100,16,3
130613932,1521,49,3
130635772,576,25,3
130656576,0,1,3
130674256,225,25,3
130695052,144,36,3
130715856,3136,121,3
130738740,625,121,3
130760572,100,25,3
130781376,64,0,3
130800096,1,64,3
130818820,64,36,3
130838592,1,25,3
130857300,4,16,3
130876008,576,1,3
130895768,1156,1,3
130916580,9,81,3
130935292,100,9,3
130955064,36,1,3
130973788,4,1,3
130991468,49,16,3
131011216,9,9,3
131028900,1,1,3
131046588,100,9,3
131066332,49,25,3
131086100,1,4,3
131103784,1,0,3
131121464,4,0,3
131139148,25,0,3
131157856,16,0,3
131176584,4,1,3
131194268,9,0,3
131211936,1,1,3
131229616,100,4,3
131249384,121,0,3
131269152,256,144,3
131290984,1,100,3
131310744,25,9,3
131329456,49,0,3
131348180,36,9,3
131366896,49,0,3
131385632,81,0,3
131404344,64,0,3
131423060,4,4,3
131440744,100,1,3
131460500,289,16,3
131481288,100,0,3
131501048,16,1,3
131519788,64,9,3
131538508,121,1,3
131558252,36,9,3
131576980,0,9,3
131594664,0,1,3
131612336,0,0,3
131630020,9,1,3
131647700,64,1,3
131666420,100,9,3
131686180,64,9,3
131704900,81,0,3
131723620,81,4,3
131742344,1,0,3
131760020,1,16,3
131778744,64,25,3
131798492,121,36,3
131819300,16,36,3
131839068,0,9,3
131856748,4,1,3
131874420,1,1,3
131892096,121,16,3
131912900,400,0,3
131932652,100,9,3
131952424,1,1,3
131970104,9,1,3
131987780,144,49,3
132008584,49,4,3
132027296,100,16,3
132048104,100,16,3
132068908,1,4,3
132086576,0,0,3
132104260,0,0,3
132121948,4,0,3
132139624,1,1,3
132157296,1,0,3
132174988,0,4,3
132192664,16,1,3
132211376,484,9,3
132231132,225,16,3
132251936,4,25,3
132270660,225,4,3
132290420,289,16,3
132311216,1,1,3
132328892,0,0,3
132346580,64,0,3
132365288,121,1,3
132385068,324,1,3
132404812,361,4,3
132424584,16,25,3
132444340,16,4,3
