Timestamp (micros),Sensor1 (mV),Sensor2 (mV),Label
51600,14884,9025,6
53860,15376,2916,6
56132,9,324,6
58188,784,324,6
60668,576,225,6
78336,576,49,6
94980,100,100,6
112644,81,256,6
130344,256,1,6
146992,841,144,6
165704,225,16,6
183364,2025,121,6
203136,4096,25,6
221848,196,81,6
239532,144,25,6
257224,676,4,6
273848,841,121,6
292576,25,64,6
309208,256,0,6
325868,36,1,6
341456,625,4,6
358092,1369,16,6
376804,2304,49,6
395536,2304,64,6
414248,400,49,6
431932,49,0,6
447548,0,9,6
462100,169,36,6
479788,1764,36,6
498488,81,196,6
516180,1936,0,6
533852,2209,196,6
553612,81,25,6
570248,324,1,6
586920,49,4,6
602508,4,1,6
617044,1444,81,6
635780,400,64,6
653472,625,36,6
671128,900,49,6
688808,121,0,6
705448,289,4,6
722104,1521,0,6
739776,1369,100,6
759536,900,25,6
777224,81,4,6
792820,144,81,6
810484,784,16,6
828172,2304,25,6
846900,1024,25,6
865612,529,4,6
882260,2500,49,6
900980,3025,121,6
920736,841,16,6
938420,64,36,6
955064,81,49,6
971684,400,0,6
988344,0,0,6
1002900,529,0,6
1020584,169,25,6
1039296,36,1,6
1055940,81,0,6
1072580,324,9,6
1090264,1024,25,6
1110008,225,25,6
1128744,1,1,6
1144348,9,0,6
1159944,4,4,6
1175544,1,1,6
1191144,256,4,6
1208824,729,16,6
1227540,324,4,6
1245216,1,0,6
1260828,144,4,6
1278512,225,4,6
1296184,36,16,6
1313864,225,4,6
1331548,441,9,6
1349220,0,0,6
1364820,25,9,6
1381468,25,0,6
1398100,841,16,6
1416820,2025,49,6
1436576,1521,144,6
1457388,625,49,6
1476104,25,1,6
1492740,361,16,6
1511460,100,9,6
1529136,1225,25,6
1548908,961,36,6
1567616,121,4,6
1585304,121,4,6
1602980,676,16,6
1621696,81,36,6
1639376,169,0,6
1657060,0,1,6
1672660,100,9,6
1690336,225,1,6
1708008,729,4,6
1725700,529,81,6
1744424,441,36,6
1763140,81,4,6
1779792,4,1,6
1795388,1,1,6
1810988,0,0,6
1826584,4,1,6
1842184,49,1,6
1858824,81,4,6
1875460,4,1,6
1891060,1,4,6
1906656,49,1,6
1923284,16,0,6
1939920,49,0,6
1956560,361,0,6
1974248,1,9,6
1989864,1369,16,6
2009620,529,121,6
2029376,256,0,6
2047068,484,4,6
2064736,144,36,6
2083436,1849,16,6
2103204,3721,196,6
2124020,49,196,6
2142740,841,16,6
2161456,1936,16,6
2181224,484,0,6
2198900,256,4,6
2216584,169,0,6
2234264,1,0,6
2249872,1,1,6
2265460,4,1,6
2281052,0,4,6
2296664,0,16,6
2313312,1,1,6
2328896,0,0,6
2344500,1,1,6
2360088,25,0,6
2376744,1,1,6
2392336,169,16,6
2411056,784,49,6
2429776,1369,81,6
2449540,121,9,6
2467228,225,49,6
2485932,64,36,6
2503604,1,0,6
2519220,16,4,6
2535864,4,1,6
2551460,400,16,6
2570168,529,25,6
2588900,144,1,6
2606568,1296,121,6
2627380,225,49,6
2646112,25,4,6
2662748,4,0,6
2678344,16,4,6
2694976,225,0,6
2712652,900,16,6
2731380,225,100,6
2751128,1225,16,6
2770884,3969,324,6
2791704,1024,144,6
2812496,0,4,6
2828092,1,1,6
2843708,1,25,6
2860344,64,25,6
2878012,81,1,6
2894640,1849,25,6
2914420,6084,100,6
2935212,1225,289,6
2956016,0,36,6
2972652,4,4,6
2988260,4,25,6
3004900,169,1,6
3022572,1521,4,6
3041300,1849,100,6
3062096,169,16,6
3080820,1,0,6
3096420,9,9,6
3112044,576,1,6
3129704,441,121,6
3149460,36,16,6
3167132,49,0,6
3183772,289,36,6
3202500,64,9,6
3219136,400,9,6
3236820,961,64,6
3255540,2500,81,6
3275300,676,121,6
3295060,25,9,6
3311712,36,0,6
3328340,100,4,6
3346020,9,25,6
3362656,144,0,6
3380344,49,16,6
3398016,169,16,6
3416744,81,4,6
3433376,4,0,6
3448976,25,49,6
3466660,81,0,6
3483308,9,36,6
3499940,9,4,6
3515548,196,64,6
3534252,324,0,6
3551924,529,144,6
3571696,576,1,6
3589380,256,81,6
3608100,4,0,6
3623700,9,16,6
3640352,64,64,6
3658032,4,4,6
3673612,1156,1,6
3692328,4096,36,6
3712116,900,169,6
3731864,289,64,6
3750580,3721,25,6
3770316,0,1225,6
3789052,24336,2500,6
3811928,0,121,6
3829608,4624,144,6
3850416,2304,25,6
3870180,1,49,6
3886812,324,36,6
3905524,5329,49,6
3925304,5625,289,6
3946100,1681,196,6
3966892,225,9,6
3984580,361,9,6
4002256,1521,64,6
4022016,225,100,6
4041780,324,0,6
4059444,841,64,6
4078184,144,36,6
4096904,225,0,6
4114592,529,1,6
4132268,64,1,6
4148892,324,16,6
4167600,1225,169,6
4188412,1600,121,6
4209204,36,0,6
4225844,5776,169,6
4246660,2500,324,6
4267460,36,4,6
4284092,1024,9,6
4302804,8649,484,6
4323620,2916,324,6
4344416,400,4,6
4362092,1225,9,6
4380828,1,1,6
4396408,64,4,6
4413048,3844,49,6
4432792,121,16,6
4451524,3136,81,6
4471292,144,9,6
4488980,400,81,6
4507704,100,100,6
4527452,1600,144,6
4548256,900,9,6
4565928,4,64,6
4582576,484,25,6
4601292,0,0,6
4616900,900,25,6
4635608,576,16,6
4654340,256,25,6
4673068,16,64,6
4690740,81,9,6
4707392,81,16,6
4725052,225,9,6
4742724,3025,25,6
4762492,484,36,6
4781220,324,4,6
4798888,2116,16,6
4818656,3721,100,6
4839464,169,100,6
4859216,121,25,6
4877932,169,4,6
4895608,100,9,6
4913300,2704,225,6
4934096,784,361,6
4953848,625,0,6
4971532,961,36,6
4990252,121,64,6
5008964,36,25,6
5026648,121,9,6
5044348,64,1,6
5060988,729,0,6
5078652,25,0,6
5095300,16,25,6
5112976,0,16,6
5129624,256,25,6
5148328,144,16,6
5167052,4,0,6
5182664,25,4,6
5199296,81,9,6
5215940,225,4,6
5233604,289,0,6
5251300,1521,16,6
5271060,144,36,6
5289784,361,1,6
5307448,64,36,6
5325140,256,1,6
5342816,36,49,6
5360500,9,16,6
5377140,49,49,6
5394820,4,16,6
5411456,1,25,6
5428100,256,1,6
5445764,841,25,6
5464492,841,9,6
5482180,676,16,6
5500892,64,81,6
5518580,625,0,6
5536248,9,49,6
5552900,2304,49,6
5572660,10000,400,6
5594492,20164,676,6
5616336,2704,841,6
5637148,196,9,6
5654816,64,25,6
5672484,1296,0,6
5691212,2401,121,6
5712032,289,100,6
5731784,64,16,6
5749456,256,16,6
5768180,625,1,6
5785856,225,16,6
5804580,2704,64,6
5824344,361,169,6
5844112,25,25,6
5861776,9,64,6
5878408,225,16,6
5897124,1089,4,6
5915856,225,0,6
5933532,1156,9,6
5952252,441,1,6
5969944,49,4,6
5986588,1369,100,6
6007376,784,100,6
6027128,225,0,6
6044824,3025,9,6
6063540,1225,4,6
6082260,1,0,6
6097844,4,1,6
6113460,121,0,6
6131128,784,49,6
6149868,1521,196,6
6170656,100,64,6
6189384,625,4,6
6207052,81,25,6
6224732,16,4,6
6241388,121,4,6
6259064,529,25,6
6277780,729,64,6
6296488,841,16,6
6315224,64,16,6
6332904,676,0,6
6350576,484,49,6
6369304,9,9,6
6384904,361,16,6
6403616,361,81,6
6422340,81,4,6
6438980,121,0,6
6456668,9,49,6
6473300,64,16,6
6490984,9,0,6
6506576,1296,1,6
6525300,4624,81,6
6545048,1849,196,6
6565860,361,4,6
6583548,1444,16,6
6603304,100,1,6
6620980,144,9,6
6638668,1,0,6
6654276,4,1,6
6669864,225,1,6
6687532,100,9,6
6705228,625,36,6
6723940,16,9,6
6740584,25,36,6
6758264,36,16,6
6775952,4,4,6
6791548,36,9,6
6808180,16,1,6
6824816,25,1,6
6841456,196,0,6
6859148,289,16,6
6877860,36,49,6
6895540,81,0,6
6912188,81,1,6
6928828,4,0,6
6944420,64,4,6
6961048,121,9,6
6978756,961,9,6
6996420,49,16,6
7014104,9,1,6
7029688,169,1,6
7047380,100,1,6
7065060,49,1,6
7081700,0,0,6
7097296,81,0,6
7113952,4,4,6
7129540,400,1,6
7147216,81,4,6
7163856,16,4,6
7180496,169,9,6
7198172,441,1,6
7215848,169,4,6
7233524,4,9,6
7249148,900,0,6
7266816,361,36,6
7285540,100,4,6
7303228,1,4,6
7318828,144,4,6
7336496,400,81,6
7355212,16,36,6
7372912,4,0,6
7388508,36,9,6
7405140,121,1,6
7422828,4,25,6
7439472,64,1,6
7456100,1024,0,6
7474808,2601,81,6
7494572,3249,196,6
7515380,625,144,6
7535148,196,9,6
7552816,729,25,6
7571532,1369,49,6
7591292,1600,81,6
7611068,484,36,6
7629768,64,1,6
7646420,49,1,6
7663048,361,1,6
7680728,3025,81,6
7700500,361,169,6
7720252,4225,4,6
7738964,6241,225,6
7759772,256,16,6
7778508,225,16,6
7797220,1024,100,6
7818028,1369,25,6
7837776,81,16,6
7855460,676,9,6
7873136,729,1,6
7890808,2916,100,6
7911620,1089,144,6
7932428,9,25,6
7949052,64,1,6
7965680,36,4,6
7982328,841,64,6
8001056,64,64,6
8018744,289,64,6
8037460,225,1,6
8055140,784,324,6
8074884,2704,81,6
8094652,784,64,6
8113384,225,9,6
8131056,289,64,6
8149784,400,49,6
8168504,1600,49,6
8188260,2601,144,6
8209040,400,81,6
8227760,196,0,6
8245476,121,0,6
8263136,961,64,6
8281848,256,9,6
8299544,100,4,6
8317228,196,9,6
8334900,1,0,6
8350504,49,36,6
8368168,361,0,6
8385860,3025,100,6
8406648,1089,256,6
8427444,961,1,6
8445156,441,4,6
8462812,81,49,6
8480488,1849,81,6
8500264,1849,361,6
8521064,16,49,6
8538752,0,0,6
8554332,529,81,6
8573060,576,25,6
8591788,81,1,6
8608416,36,16,6
8626100,36,16,6
8643780,49,0,6
8660412,729,1,6
8678092,729,16,6
8696808,400,36,6
8715540,144,9,6
8733220,1369,4,6
8751928,3721,144,6
8772740,529,49,6
8791468,9,4,6
8807060,36,16,6
8824732,25,1,6
8841376,144,1,6
8859048,441,1,6
8876732,225,1,6
8894408,1,9,6
8910024,1849,225,6
8930812,1296,144,6
8951624,1024,16,6
8971388,81,49,6
8989060,121,4,6
9006716,16,0,6
9023368,1225,1,6
9042104,100,9,6
9059772,25,4,6
9076408,9,0,6
9092008,16,4,6
9108660,81,4,6
9125300,1,1,6
9140896,529,1,6
9158576,841,9,6
9176264,324,4,6
9193944,144,4,6
9211628,1,49,6
9228248,0,36,6
9244904,841,36,6
9263612,1444,225,6
9284408,256,64,6
9303144,1,0,6
9318744,400,0,6
9336420,196,1,6
9354104,25,4,6
9370724,64,0,6
9387376,1444,25,6
9407128,256,36,6
9425860,400,25,6
9444576,841,49,6
9463300,289,4,6
9480980,1,16,6
9497624,64,4,6
9514264,484,1,6
9531936,256,9,6
9549628,1600,169,6
9570424,169,196,6
9590192,9,16,6
9606812,256,36,6
9625532,961,49,6
9644264,9,1,6
9659844,625,4,6
9677528,16,0,6
9694172,169,1,6
9711864,225,49,6
9730580,1681,49,6
9750344,2304,144,6
9771148,4,121,6
9788824,529,36,6
9807536,196,49,6
9826244,144,9,6
9843932,576,36,6
9862656,64,25,6
9880320,1,0,6
9895924,2209,64,6
9915700,3136,289,6
9936496,361,64,6
9955224,625,4,6
9972904,1764,64,6
9992660,1156,81,6
10012416,25,4,6
10030092,2500,49,6
10050892,2401,81,6
10071696,841,121,3
10092500,100,36,3
10112260,100,1,3
10130984,144,16,3
10150736,36,0,3
10168420,484,36,3
10188180,625,169,3
10208980,1,1,3
10225608,100,16,3
10245388,4,16,3
10263068,225,1,3
10281768,121,36,3
10301540,9,9,3
10318184,25,0,3
10335848,25,0,3
10353532,25,4,3
10371220,0,16,3
10388900,0,4,3
10405532,36,4,3
10423220,81,9,3
10440904,9,4,3
10457528,0,1,3
10474172,81,4,3
10491856,324,1,3
10510592,121,169,3
10531376,0,225,3
10550092,25,36,3
10568832,144,441,3
10589628,25,169,3
10609392,529,4,3
10628088,484,144,3
10648916,9,1,3
10665548,196,25,3
10685304,36,4,3
10702992,324,16,3
10722748,256,1,3
10741468,4,0,3
10758096,225,1,3
10776820,256,4,3
10795548,25,16,3
10814264,25,1,3
10831936,36,16,3
10850668,0,0,3
10867304,49,4,3
10884980,0,1,3
10901624,0,1,3
10918260,169,1,3
10936972,324,16,3
10956728,121,4,3
10975464,9,1,3
10992100,100,1,3
11010816,196,9,3
11029552,9,4,3
11046188,81,25,3
11064900,225,1,3
11083624,361,1,3
11102348,1,9,3
11118988,144,0,3
11137696,144,0,3
11156416,121,4,3
11175140,121,1,3
11193860,36,0,3
11211540,81,49,3
11230260,225,25,3
11250024,144,1,3
11268732,121,0,3
11287452,49,0,3
11305140,25,0,3
11322820,0,9,3
11339460,49,36,3
11358168,4,9,3
11374820,81,4,3
11392504,81,1,3
11410180,9,16,3
11427864,144,16,3
11447620,900,81,3
11467376,64,64,3
11486100,36,4,3
11503788,4,4,3
11520416,9,16,3
11538100,4,9,3
11554736,36,4,3
11572428,16,9,3
11590096,0,0,3
11606736,64,1,3
11624412,484,16,3
11644180,169,16,3
11663944,4,0,3
11680576,49,9,3
11698264,25,0,3
11715940,0,4,3
11732572,4,0,3
11749220,81,0,3
11766900,64,0,3
11784588,9,1,3
11801216,81,0,3
11818888,16,0,3
11836592,1,1,3
11853216,16,0,3
11870904,16,16,3
11889604,25,64,3
11908344,16,4,3
11926024,0,1,3
11942664,36,4,3
11960336,64,1,3
11978032,1,0,3
11994672,64,9,3
12012344,4,1,3
12028988,169,1,3
12047696,400,36,3
12067448,25,64,3
12086176,64,36,3
12104912,289,9,3
12123616,100,16,3
12143376,36,25,3
12162108,225,4,3
12180828,144,64,3
12200580,1,64,3
12218260,16,4,3
12235948,0,81,3
12253612,121,25,3
12273380,121,4,3
12292088,169,36,3
12311868,64,1,3
12329536,1,4,3
12346172,64,9,3
12363856,49,16,3
12382580,1,16,3
12400260,49,36,3
12418976,144,4,3
12437708,196,4,3
12456420,256,25,3
12476176,169,16,3
12495948,36,4,3
12513628,484,4,3
12532332,64,9,3
12550008,0,0,3
12566668,400,4,3
12585376,529,49,3
12605140,0,9,3
12621772,4,0,3
12638416,9,4,3
12655052,81,25,3
12673776,256,36,3
12693548,1,16,3
12711228,121,4,3
12729940,64,25,3
12748652,324,16,3
12768424,961,49,3
12788176,441,121,3
12808984,121,4,3
12827716,81,0,3
12845384,900,0,3
12864088,400,36,3
12883852,225,9,3
12902580,81,9,3
12920256,121,1,3
12938972,484,9,3
12957712,16,0,3
12975384,625,25,3
12995140,9,0,3
13011768,169,25,3
13031544,441,9,3
13050272,441,4,3
13068976,169,25,3
13088736,196,25,3
13108508,25,4,3
13126184,100,4,3
13144900,121,49,3
13164664,64,49,3
13183384,4,4,3
13200016,1,0,3
13216656,9,0,3
13233300,0,9,3
13249948,1,4,3
13266576,1,9,3
13283224,4,25,3
13300904,16,1,3
13318584,64,1,3
13336260,121,1,3
13354972,36,4,3
13372664,64,0,3
13390336,169,16,3
13410104,25,9,3
13427788,49,0,3
13445468,81,0,3
13463136,1,4,3
13479772,64,0,3
13497460,144,0,3
13516188,16,16,3
13534904,64,9,3
13552572,289,1,3
13571288,256,1,3
13590032,324,4,3
13608752,676,4,3
13627460,441,36,3
13647220,169,9,3
13665948,9,1,3
13682568,361,9,3
13701300,81,16,3
13720020,225,9,3
13738736,625,36,3
13758504,16,4,3
13776180,121,0,3
13794896,100,1,3
13813620,1,16,3
13831304,400,1,3
13850028,676,16,3
13869776,361,25,3
13889544,9,4,3
13906176,0,4,3
13922800,841,100,3
13943616,441,196,3
13964424,121,36,3
13984172,441,36,3
14003932,625,100,3
14024748,4,9,3
14041380,64,4,3
14059056,16,0,3
14076740,144,4,3
14095468,169,36,3
14115220,121,4,3
14133940,289,4,3
14152656,4,16,3
14170340,9,64,3
14188016,4,100,3
14206736,225,0,3
14225468,576,25,3
14245220,25,0,3
14262900,361,1,3
14281620,16,16,3
14300336,25,0,3
14318020,36,36,3
14336748,16,1,3
14354420,25,9,3
14372104,1,4,3
14388748,121,0,3
14407468,729,25,3
14427232,169,1,3
14445940,25,16,3
14464660,196,9,3
14483368,441,36,3
14503144,169,0,3
14521856,36,0,3
14539536,324,0,3
14558264,121,25,3
14578028,121,1,3
14596732,256,0,3
14615452,16,9,3
14633156,196,49,3
14652900,961,36,3
14672656,1089,0,3
14692428,144,9,3
14711144,25,9,3
14728816,289,1,3
14747532,289,49,3
14767304,256,9,3
14786016,324,25,3
14805776,169,100,3
14826592,0,16,3
14844260,144,9,3
14862984,0,1,3
14879628,324,25,3
14899384,49,4,3
14917060,441,25,3
14936820,400,1,3
14955548,1,16,3
14973224,64,1,3
14990896,625,49,3
15010652,256,0,3
15029384,100,64,3
15049140,144,1,3
15067864,121,1,3
15086584,0,4,3
15103228,144,0,3
15121944,324,4,3
15140660,324,49,3
15160416,4,64,3
15178104,36,9,3
15195772,324,36,3
15215528,144,36,3
15235304,49,4,3
15252984,4,1,3
15269616,4,1,3
15286256,100,9,3
15304984,9,9,3
15321632,361,4,3
15340336,169,49,3
15360100,400,0,3
15378816,900,81,3
15398576,529,36,3
15418332,441,25,3
15438100,16,25,3
15456820,81,4,3
15474500,16,4,3
15492176,4,0,3
15508812,0,36,3
15526496,16,4,3
15544184,256,49,3
15563952,121,64,3
15583696,36,9,3
15601372,400,121,3
15622172,529,64,3
15641944,4,25,3
15659624,196,16,3
15679388,1,64,3
15697064,529,0,3
15715772,625,0,3
15734496,16,0,3
15752168,256,9,3
15770904,324,4,3
15789624,225,16,3
15809384,9,25,3
15827060,4,4,3
15843700,16,16,3
15862420,9,9,3
15879064,0,1,3
15895704,64,16,3
15914416,81,16,3
15933140,1,0,3
15949780,36,1,3
15967468,1,4,3
15984096,25,36,3
16002824,25,9,3
16020500,144,9,3
16039228,121,9,3
16057928,0,0,3
16074588,1,0,3
16091224,144,1,3
16109948,25,0,3
16127620,9,1,3
16144256,81,4,3
16161948,625,0,3
16180676,361,9,3
16199384,25,9,3
16217056,49,9,3
16234752,1,36,3
16252416,81,49,3
16271132,121,49,3
16290904,4,0,3
16307540,289,16,3
16327296,289,9,3
16346016,81,25,3
16364752,9,4,3
16381380,49,16,3
16400104,1,4,3
16416744,0,9,3
16433380,9,0,3
16450028,25,1,3
16467700,36,0,3
16485376,64,9,3
16503068,25,25,3
16521792,100,0,3
16540492,36,0,3
16558176,81,25,3
16576900,144,4,3
16595612,169,9,3
16614336,256,1,3
16633060,324,9,3
16651776,81,16,3
16670492,729,1,3
16689220,1764,100,3
16711060,441,100,3
16731856,36,16,3
16750564,324,49,3
16770352,36,4,3
16788024,16,4,3
16805696,1,16,3
16823380,0,9,3
16840028,49,25,3
16858740,4,81,3
16876424,4,0,3
16893064,4,16,3
16910744,0,9,3
16927368,169,0,3
16946084,121,16,3
16965856,4,4,3
16982496,4,0,3
16999136,25,16,3
17017844,121,81,3
17037624,49,25,3
17056348,1,1,3
17072980,16,9,3
17090664,1,9,3
17107300,16,4,3
17124968,0,16,3
17142656,1,1,3
17159300,64,4,3
17176980,121,25,3
17196732,49,25,3
17215456,121,1,3
17234188,196,9,3
17252912,1,4,3
17269544,100,1,3
17288260,64,9,3
17305944,4,4,3
17322584,49,4,3
17340248,36,16,3
17358992,64,1,3
17376668,25,4,3
17394340,4,1,3
17410976,4,1,3
17427628,9,9,3
17444268,36,1,3
17461932,36,1,3
17479612,0,0,3
17496268,1,1,3
17512896,169,0,3
17531612,225,25,3
17551384,64,36,3
17570100,100,16,3
17589852,49,4,3
17607536,36,4,3
17625224,1,0,3
17641868,64,1,3
17659540,289,0,3
17678248,16,4,3
17695940,169,36,3
17715696,16,0,3
17733380,196,1,3
17752104,36,16,3
17770828,49,0,3
17788504,16,1,3
17806184,0,4,3
17822820,16,1,3
17840508,9,0,3
17857144,4,4,3
17873780,81,4,3
17891468,9,1,3
17908100,16,0,3
17925772,9,9,3
17942428,9,25,3
17960104,9,1,3
17976740,64,4,3
17994432,16,0,3
18012100,4,16,3
18029792,1,16,3
18047456,144,1,3
18066172,144,25,3
18085948,1,25,3
18103628,4,1,3
18120268,1,9,3
18136896,144,0,3
18155620,196,16,3
18175380,16,1,3
18193048,0,0,3
18209700,4,36,3
18227376,169,36,3
18247140,36,0,3
18264812,49,0,3
18282500,9,1,3
18299148,4,0,3
18315776,64,0,3
18333460,441,16,3
18353228,289,4,3
18371952,144,1,3
18390664,1,9,3
18407304,49,1,3
18424988,0,16,3
18442668,16,1,3
18460320,529,16,3
18480080,1936,64,3
18500908,256,81,3
18520664,49,1,3
18538344,0,9,3
18554992,144,9,3
18573712,100,9,3
18592420,9,1,3
18609048,25,0,3
18626736,9,0,3
18643368,16,0,3
18661052,81,0,3
18678724,81,0,3
18696428,1,25,3
18714108,0,16,3
18731768,9,49,3
18749464,49,49,3
18768184,81,4,3
18785860,169,1,3
18804580,441,144,3
18825384,144,144,3
18846176,64,49,3
18864892,81,25,3
18883632,9,36,3
18901308,36,4,3
18918972,81,1,3
18936668,4,1,3
18953312,4,0,3
18969948,4,1,3
18986580,9,16,3
19004264,36,9,3
19021940,256,0,3
19040668,64,1,3
19058328,49,9,3
19076008,144,9,3
19094740,81,0,3
19112416,1,0,3
19129056,16,1,3
19146732,81,4,3
19164432,196,4,3
19183160,169,0,3
19201864,1,1,3
19218500,169,0,3
19237228,1,25,3
19254892,81,4,3
19272568,16,0,3
19290260,9,0,3
19306912,4,0,3
19323540,324,0,3
19342244,81,0,3
19359944,4,0,3
19376572,36,25,3
19395296,4,36,3
19412972,1,1,3
19429632,121,0,3
19448348,169,1,3
19467048,900,16,3
19486824,1600,36,3
19507620,16,25,3
19526340,121,1,3
19545056,9,4,3
19561704,0,81,3
19579372,324,49,3
19599140,484,36,3
19618896,324,64,3
19638660,900,9,3
19657368,49,81,3
19676088,1369,25,3
19696904,2209,64,3
19717692,2116,100,3
19739536,441,16,3
19759304,25,0,3
19776976,361,9,3
19795692,676,289,3
19816500,529,196,3
19837308,81,9,3
19854980,841,49,3
19874732,81,49,3
19893464,121,9,3
19912176,1024,121,3
19934020,1225,289,3
19955860,225,16,3
19975612,0,25,3
19993300,9,4,3
20009936,1,0,3
20026580,100,1,3
20045288,576,0,3
20064012,225,16,7
20083784,49,9,7
20101460,16,16,7
20120172,529,1,7
20138888,1024,64,7
20159712,121,121,7
20180508,100,4,7
20199208,49,4,7
20216900,0,4,7
20233548,1,0,7
20250176,4,1,7
20266824,1,1,7
20283468,196,16,7
20303220,400,16,7
20322988,196,1,7
20341688,9,4,7
20358344,0,36,7
20376016,16,16,7
20394740,36,0,7
20412412,4,0,7
20429068,0,1,7
20445696,1,0,7
20462336,1,0,7
20478972,0,9,7
20495636,9,9,7
20512260,100,0,7
20530972,36,0,7
20548672,0,1,7
20565308,36,0,7
20582976,81,16,7
20601704,16,9,7
20619388,16,0,7
20637064,100,9,7
20655776,9,9,7
20672412,0,0,7
20689064,4,1,7
20705700,36,1,7
20723380,100,1,7
20742096,4,1,7
20758740,16,1,7
20776412,36,1,7
20794092,25,0,7
20811764,16,0,7
20829460,16,0,7
20847148,1,1,7
20863784,16,324,7
20883544,4,1849,7
20903300,81,1024,7
20924100,256,1,7
20942816,36,4,7
20960508,1,16,7
20978184,0,25,7
20995860,1,25,7
21013540,4,1,7
21030180,0,1,7
21046828,1,1,7
21063456,0,0,7
21080092,0,0,7
21096736,0,9,7
21113388,1,9,7
21130024,1,0,7
21146656,0,0,7
21163300,0,1,7
21179948,1,1,7
21196580,0,4,7
21213220,1,9,7
21229868,1,4,7
21246504,1,1,7
21263128,0,1,7
21279776,4,0,7
21296420,0,0,7
21313072,1,1,7
21329692,4,4,7
21346348,4,9,7
21362976,0,16,7
21380652,1,9,7
21397292,0,9,7
21413940,0,1,7
21430580,0,0,7
21447212,0,9,7
21463856,1,16,7
21481540,1,1,7
21498180,0,1,7
21514808,0,0,7
21531452,0,0,7
21548100,4,0,7
21564740,4,0,7
21581384,9,1,7
21598012,16,1,7
21615696,4,0,7
21632340,0,0,7
21648972,0,1,7
21665608,0,4,7
21682256,0,9,7
21698896,0,0,7
21715540,1,4,7
21732184,1,9,7
21748820,0,4,7
21765460,0,1,7
21782088,0,9,7
21798744,1,1,7
21815384,0,1,7
21832020,1,4,7
21848656,0,4,7
21865292,0,9,7
21881948,0,9,7
21898580,0,4,7
21915220,1,4,7
21931856,0,9,7
21948504,0,4,7
21965140,0,4,7
21981772,0,4,7
21998412,0,1,7
22015056,0,0,7
22031704,1,1,7
22048340,0,1,7
22064972,1,4,7
22081616,0,9,7
22098256,0,1,7
22114896,0,4,7
22131536,0,4,7
22148180,0,1,7
22164820,0,1,7
22181456,0,4,7
22198092,0,1,7
22214740,0,1,7
22231380,0,1,7
22248012,0,1,7
22264652,0,1,7
22281304,0,4,7
22297944,0,4,7
22314584,1,9,7
22331220,0,9,7
22347860,0,0,7
22364508,1,0,7
22381136,4,1,7
22397780,1,1,7
22414420,0,1,7
22431060,0,1,7
22447688,0,0,7
22464340,0,0,7
22480984,0,4,7
22497616,0,4,7
22514252,0,1,7
22530888,1,0,7
22547540,0,0,7
22564184,0,1,7
22580824,0,1,7
22597460,0,1,7
22614104,0,1,7
22630736,0,1,7
22647372,0,1,7
22664012,0,0,7
22680664,0,1,7
22697304,0,1,7
22713932,0,0,7
22730572,0,0,7
22747220,0,0,7
22763864,1,0,7
22780492,0,0,7
22797132,0,4,7
22813788,1,0,7
22830420,0,0,7
22847052,0,0,7
22863692,0,0,7
22880336,0,0,7
22896980,0,1,7
22913624,1,1,7
22930248,0,0,7
22946900,1,0,7
22963532,0,0,7
22980172,0,0,7
22996820,0,0,7
23013468,1,1,7
23030100,0,0,7
23046732,0,1,7
23063376,0,1,7
23080020,0,1,7
23096668,1,4,7
23113292,0,1,7
23129932,0,4,7
23146584,0,4,7
23163224,0,4,7
23179852,0,1,7
23196492,0,9,7
23213136,1,0,7
23229776,0,0,7
23246420,1,0,7
23263052,0,0,7
23279700,1,1,7
23296340,1,9,7
23312980,0,9,7
23329620,0,9,7
23346260,0,9,7
23362900,1,4,7
23379540,1,4,7
23396180,0,1,7
23412820,0,0,7
23429460,1,0,7
23446104,1,1,7
23462732,0,0,7
23479380,0,1,7
23496016,0,9,7
23512652,1,4,7
23529304,0,1,7
23545940,0,1,7
23562580,0,1,7
23579212,0,4,7
23595852,0,25,7
23613540,0,9,7
23630180,0,0,7
23646812,0,0,7
23663448,0,0,7
23680100,1,0,7
23696744,0,1,7
23713380,0,0,7
23730016,0,1,7
23746660,0,1,7
23763300,0,0,7
23779928,1,0,7
23796584,1,1,7
23813224,0,1,7
23829868,0,0,7
23846492,0,0,7
23863132,0,0,7
23879784,1,1,7
23896420,0,1,7
23913060,0,0,7
23929700,1,1,7
23946340,0,4,7
23962980,0,1,7
23979612,4,0,7
23996248,0,4,7
24012908,1,4,7
24029540,0,4,7
24046180,1,4,7
24062812,0,1,7
24079460,1,1,7
24096096,0,0,7
24112732,1,1,7
24129368,0,0,7
24146028,0,0,7
24162672,0,1,7
24179304,4,1,7
24195936,1,0,7
24212592,1,1,7
24229232,1,1,7
24245852,0,4,7
24262504,1,9,7
24279140,0,1,7
24295776,0,9,7
24312408,0,25,7
24330100,4,9,7
24346748,1,25,7
24364420,0,25,7
24382092,0,1,7
24398732,0,0,7
24415388,9,0,7
24432028,64,9,7
24449700,1,9,7
24466336,0,4,7
24482980,4,4,7
24499620,0,1,7
24516252,0,4,7
24532896,1,9,7
24549540,0,4,7
24566180,1,4,7
24582820,0,9,7
24599456,1,9,7
24616108,4,4,7
24632740,1,9,7
24649372,0,9,7
24666016,1,9,7
24682660,0,1,7
24699304,9,0,7
24715932,36,1,7
24733612,4,4,7
24750260,0,4,7
24766900,1,1,7
24783540,1,1,7
24800164,0,1,7
24816820,4,1,7
24833456,1,1,7
24850084,0,0,7
24866732,4,0,7
24883380,1,1,7
24900012,0,9,7
24916656,0,4,7
24933300,0,1,7
24949936,0,4,7
24966572,0,1,7
24983216,0,1,7
24999852,1,4,7
25016496,0,0,7
25033132,0,1,7
25049772,0,4,7
25066408,1,1,7
25083060,1,1,7
25099692,0,1,7
25116328,1,0,7
25132968,0,1,7
25149624,0,1,7
25166260,0,1,7
25182896,0,4,7
25199524,0,4,7
25216184,0,1,7
25232812,0,9,7
25249460,0,25,7
25267124,0,4,7
25283784,0,4,7
25300412,0,4,7
25317048,0,0,7
25333692,1,0,7
25350344,0,4,7
25366980,0,1,7
25383620,1,1,7
25400244,4,9,7
25416912,0,9,7
25433540,0,4,7
25450176,0,1,7
25466816,0,0,7
25483464,0,4,7
25500092,0,9,7
25516732,0,4,7
25533364,0,4,7
25550020,0,4,7
25566660,0,0,7
25583288,0,0,7
25599920,0,0,7
25616576,0,0,7
25633208,0,0,7
25649856,0,1,7
25666496,0,0,7
25683140,1,0,7
25699776,0,1,7
25716416,0,1,7
25733048,4,0,7
25749700,0,1,7
25766332,0,1,7
25782972,0,4,7
25799608,0,1,7
25816256,0,0,7
25832888,1,0,7
25849532,0,1,7
25866164,0,1,7
25882828,1,0,7
25899452,0,0,7
25916092,0,0,7
25932728,0,1,7
25949380,0,1,7
25966020,0,1,7
25982656,1,0,7
25999284,0,0,7
26015940,0,0,7
26032572,0,0,7
26049212,0,1,7
26065844,0,9,7
26082496,1,9,7
26099136,0,9,7
26115780,0,4,7
26132416,1,1,7
26149060,0,1,7
26165700,0,4,7
26182336,1,0,7
26198976,1,1,7
26215624,1,1,7
26232256,1,0,7
26248888,0,4,7
26265528,0,4,7
26282184,1,0,7
26298812,0,1,7
26315456,0,4,7
26332096,1,1,7
26348740,0,4,7
26365368,0,16,7
26383048,4,16,7
26400724,0,25,7
26418416,0,0,7
26435060,1,4,7
26451700,0,9,7
26468324,0,4,7
26484980,0,4,7
26501620,1,1,7
26518256,0,4,7
26534896,0,9,7
26551552,1,4,7
26568172,1,4,7
26584820,0,4,7
26601456,1,1,7
26618100,0,4,7
26634740,1,4,7
26651376,1,0,7
26668004,0,9,7
26684660,0,9,7
26701304,1,1,7
26717936,0,4,7
26734572,0,4,7
26751224,0,0,7
26767860,1,0,7
26784500,0,9,7
26801136,1,4,7
26817784,0,4,7
26834416,0,4,7
26851056,0,0,7
26867684,0,4,7
26884336,0,16,7
26902024,0,1,7
26918656,0,0,7
26935292,1,0,7
26951940,1,0,7
26968572,0,1,7
26985224,0,0,7
27001864,0,1,7
27018500,0,0,7
27035132,0,0,7
27051772,0,0,7
27068408,0,0,7
27085060,0,1,7
27101688,0,1,7
27118340,0,0,7
27134964,0,0,7
27151624,0,1,7
27168252,0,0,7
27184892,0,4,7
27201532,1,0,7
27218180,0,0,7
27234816,0,1,7
27251456,0,1,7
27268088,1,1,7
27284740,0,9,7
27301380,0,9,7
27318024,1,1,7
27334644,0,0,7
27351296,0,0,7
27367932,0,1,7
27384568,0,4,7
27401204,0,9,7
27417856,1,16,7
27435536,0,36,7
27453212,0,16,7
27470900,1,4,7
27487540,0,4,7
27504172,0,1,7
27520804,4,0,7
27537452,0,9,7
27554096,0,0,7
27570744,1,4,7
27587380,1,1,7
27604020,0,1,7
27620660,0,1,7
27637292,0,0,7
27653944,0,1,7
27670572,0,4,7
27687232,1,1,7
27703848,0,4,7
27720492,0,4,7
27737140,0,0,7
27753780,0,0,7
27770416,0,1,7
27787056,0,1,7
27803704,0,1,7
27820340,1,9,7
27836980,1,4,7
27853628,0,9,7
27870260,0,4,7
27886896,0,0,7
27903532,0,1,7
27920184,0,9,7
27936820,0,1,7
27953460,0,9,7
27970092,0,9,7
27986740,1,9,7
28003380,0,16,7
28021060,0,9,7
28037704,0,1,7
28054328,0,0,7
28070980,0,0,7
28087620,0,0,7
28104252,1,0,7
28120900,0,1,7
28137540,0,4,7
28154192,1,4,7
28170812,0,1,7
28187456,0,1,7
28204104,0,1,7
28220740,0,0,7
28237372,0,0,7
28254020,0,4,7
28270656,0,0,7
28287304,1,4,7
28303940,4,0,7
28320580,1,0,7
28337220,0,1,7
28353860,0,0,7
28370488,0,0,7
28387132,0,1,7
28403780,0,0,7
28420416,0,0,7
28437064,1,0,7
28453700,0,0,7
28470340,0,0,7
28486976,1,0,7
28503612,0,1,7
28520252,0,16,7
28537940,0,9,7
28554580,0,4,7
28571208,1,0,7
28587864,4,1,7
28604500,0,0,7
28621140,4,0,7
28637772,1,4,7
28654416,0,0,7
28671068,1,4,7
28687700,1,16,7
28705372,0,9,7
28722016,0,1,7
28738656,0,0,7
28755300,1,0,7
28771940,1,1,7
28788568,0,0,7
28805220,0,0,7
28821860,0,0,7
28838492,0,0,7
28855140,0,1,7
28871776,0,0,7
28888408,0,0,7
28905052,0,0,7
28921704,1,0,7
28938340,0,1,7
28954976,0,4,7
28971612,1,0,7
28988260,1,0,7
29004904,0,1,7
29021540,1,0,7
29038176,1,0,7
29054824,0,0,7
29071460,0,0,7
29088100,0,0,7
29104740,0,0,7
29121372,4,0,7
29138016,1,0,7
29154656,0,4,7
29171292,0,1,7
29187928,0,0,7
29204584,0,1,7
29221220,1,1,7
29237864,0,0,7
29254496,0,0,7
29271148,0,0,7
29287784,0,1,7
29304412,0,4,7
29321052,0,0,7
29337704,1,0,7
29354344,1,4,7
29370968,0,16,7
29388652,0,36,7
29406344,0,16,7
29424028,1,0,7
29440648,0,0,7
29457292,0,1,7
29473944,0,1,7
29490580,0,0,7
29507220,0,1,7
29523856,1,1,7
29540500,0,0,7
29557140,0,1,7
29573768,1,9,7
29590420,0,1,7
29607068,1,9,7
29623712,1,16,7
29641372,0,0,7
29658012,0,1,7
29674656,0,0,7
29691300,0,1,7
29707944,0,4,7
29724572,0,4,7
29741224,0,1,7
29757860,0,1,7
29774496,0,1,7
29791136,0,4,7
29807780,0,0,7
29824420,0,0,7
29841052,0,0,7
29857700,1,0,7
29874344,0,1,7
29890988,0,4,7
29907616,0,4,7
29924256,0,1,7
29940900,1,0,7
29957536,1,0,7
29974180,0,0,7
29990816,1,1,7
30007460,0,9,7
30024104,0,1,7
30040728,0,0,7
30057372,0,0,1
30074024,0,1,1
30090660,0,4,1
30107304,1,9,1
30123928,0,9,1
30140580,0,9,1
30157220,0,0,1
30173852,0,1,1
30190488,0,4,1
30207140,0,0,1
30223784,0,0,1
30240424,1,4,1
30257056,1,4,1
30273700,0,1,1
30290340,0,0,1
30306980,0,0,1
30323616,0,1,1
30340260,1,9,1
30356900,0,16,1
30374580,0,0,1
30391208,0,1,1
30407864,1,9,1
30424488,9,16,1
30442180,4,1,1
30458808,0,9,1
30475464,1,36,1
30493140,4,4,1
30509768,0,4,1
30526416,1,1,1
30543060,0,0,1
30559692,0,1,1
30576336,0,9,1
30592968,0,4,1
30609620,0,0,1
30626264,0,1,1
30642892,0,9,1
30659520,0,9,1
30676180,0,1,1
30692812,0,1,1
30709464,0,1,1
30726092,0,0,1
30742736,1,0,1
30759372,0,1,1
30776020,1,1,1
30792648,0,1,1
30809304,0,1,1
30825940,0,4,1
30842572,0,0,1
30859204,0,0,1
30875856,0,0,1
30892488,1,0,1
30909140,0,9,1
30925776,0,4,1
30942420,0,0,1
30959052,0,0,1
30975700,1,0,1
30992324,0,1,1
31008980,1,0,1
31025620,1,1,1
31042256,49,4,1
31059928,81,16,1
31078664,9,9,1
31095292,0,0,1
31111932,1,0,1
31128584,0,1,1
31145224,0,0,1
31161852,0,0,1
31178488,0,0,1
31195128,16,0,1
31212828,81,16,1
31231532,25,9,1
31249220,0,9,1
31265864,0,9,1
31282500,0,1,1
31299132,0,1,1
31315772,0,0,1
31332420,0,0,1
31349064,0,0,1
31365688,0,0,1
31382336,0,1,1
31398980,0,1,1
31415632,0,1,1
31432260,1,1,1
31448892,9,0,1
31465536,4,0,1
31482184,0,1,1
31498812,0,1,1
31515452,0,0,1
31532096,1,0,1
31548744,1,1,1
31565376,0,1,1
31582024,1,1,1
31598672,1,4,1
31615308,0,1,1
31631932,1,1,1
31648576,0,1,1
31665216,0,0,1
31681856,0,0,1
31698488,0,0,1
31715132,0,1,1
31731784,0,1,1
31748420,0,0,1
31765052,0,1,1
31781696,0,1,1
31798340,0,1,1
31814980,0,1,1
31831612,0,1,1
31848252,0,4,1
31864904,0,1,1
31881536,0,0,1
31898168,1,0,1
31914812,0,0,1
31931460,0,0,1
31948112,0,0,1
31964740,1,4,1
31981372,0,1,1
31998008,0,0,1
32014648,0,0,1
32031292,0,1,1
32047936,0,1,1
32064580,0,9,1
32081216,0,9,1
32097848,0,4,1
32114488,0,1,1
32131140,0,1,1
32147792,0,0,1
32164420,0,0,1
32181064,1,1,1
32197692,0,1,1
32214344,0,4,1
32230984,0,1,1
32247612,0,0,1
32264264,0,1,1
32280900,0,1,1
32297532,0,1,1
32314172,0,4,1
32330824,0,1,1
32347460,0,0,1
32364092,0,0,1
32380732,0,0,1
32397388,1,0,1
32414020,0,0,1
32430660,1,0,1
32447292,0,0,1
32463944,0,1,1
32480580,1,0,1
32497220,0,1,1
32513852,0,0,1
32530504,0,4,1
32547152,0,1,1
32563772,0,4,1
32580412,0,1,1
32597056,0,0,1
32613700,0,1,1
32630344,0,4,1
32646980,0,0,1
32663624,0,1,1
32680264,0,1,1
32696900,1,0,1
32713528,0,0,1
32730184,0,1,1
32746824,0,1,1
32763464,1,1,1
32780092,0,4,1
32796744,0,9,1
32813388,1,4,1
32830012,0,1,1
32846656,0,0,1
32863308,0,0,1
32879940,0,1,1
32896572,0,1,1
32913212,0,1,1
32929860,0,1,1
32946500,1,1,1
32963132,0,4,1
32979776,0,1,1
32996420,0,0,1
33013060,0,0,1
33029692,0,0,1
33046340,1,0,1
33062984,0,1,1
33079620,0,1,1
33096252,0,0,1
33112888,0,0,1
33129540,0,0,1
33146184,0,1,1
33162824,0,0,1
33179460,0,0,1
33196092,0,1,1
33212728,0,0,1
33229372,0,1,1
33246028,0,4,1
33262660,0,0,1
33279300,0,0,1
33295932,0,0,1
33312572,0,0,1
33329224,0,0,1
33345856,0,0,1
33362492,0,0,1
33379132,0,0,1
33395780,0,0,1
33412420,0,0,1
33429060,0,0,1
33445696,0,4,1
33462348,1,9,1
33478976,0,0,1
33495620,1,1,1
33512248,0,0,1
33528904,0,0,1
33545540,0,1,1
33562168,1,0,1
33578812,0,1,1
33595448,0,4,1
33612100,0,4,1
33628732,0,4,1
33645376,0,4,1
33662028,0,4,1
33678656,0,9,1
33695292,1,1,1
33711928,0,0,1
33728576,0,0,1
33745220,0,0,1
33761848,0,1,1
33778496,0,4,1
33795148,1,1,1
33811784,0,1,1
33828412,0,0,1
33845052,0,1,1
33861700,0,4,1
33878340,0,4,1
33894984,1,0,1
33911620,0,0,1
33928260,0,1,1
33944900,0,1,1
33961532,0,0,1
33978180,1,0,1
33994820,1,1,1
34011464,0,1,1
34028100,1,1,1
34044732,0,4,1
34061384,0,1,1
34078020,0,0,1
34094652,0,1,1
34111288,0,0,1
34127936,0,0,1
34144580,0,0,1
34161220,1,1,1
34177864,0,0,1
34194500,0,1,1
34211136,0,0,1
34227772,0,1,1
34244412,0,1,1
34261060,0,0,1
34277700,0,0,1
34294332,0,4,1
34310972,0,1,1
34327620,0,1,1
34344260,0,1,1
34360896,1,0,1
34377528,0,0,1
34394180,0,1,1
34410820,1,0,1
34427452,0,0,1
34444088,0,0,1
34460736,1,0,1
34477380,0,0,1
34494020,1,1,1
34510656,1,0,1
34527304,1,1,1
34543944,0,4,1
34560572,1,4,1
34577212,0,1,1
34593872,0,0,1
34610504,0,1,1
34627128,0,0,1
34643772,0,4,1
34660412,0,1,1
34677060,0,0,1
34693704,0,1,1
34710328,1,4,1
34726980,0,1,1
34743620,0,0,1
34760248,0,0,1
34776900,0,0,1
34793552,0,1,1
34810180,0,0,1
34826812,0,0,1
34843452,0,0,1
34860112,0,4,1
34876740,0,0,1
34893372,0,0,1
34910012,0,0,1
34926660,1,0,1
34943300,0,1,1
34959944,0,1,1
34976580,0,0,1
34993220,0,4,1
35009860,0,1,1
35026492,0,1,1
35043132,0,1,1
35059780,0,1,1
35076420,0,0,1
35093056,0,4,1
35109704,1,1,1
35126344,0,1,1
35142980,0,0,1
35159612,0,1,1
35176252,0,1,1
35192904,0,1,1
35209544,0,1,1
35226172,0,0,1
35242808,0,0,1
35259460,0,0,1
35276100,0,1,1
35292728,0,4,1
35309372,4,9,1
35326020,1,9,1
35342656,0,4,1
35359292,0,1,1
35375936,0,0,1
35392584,0,1,1
35409220,0,1,1
35425852,0,1,1
35442492,0,4,1
35459148,0,4,1
35475784,0,0,1
35492408,0,4,1
35509056,0,1,1
35525700,0,1,1
35542336,0,9,1
35558972,0,4,1
35575608,0,4,1
35592264,0,4,1
35608912,0,1,1
35625532,0,1,1
35642172,0,1,1
35658816,0,1,1
35675460,0,0,1
35692104,0,4,1
35708732,0,4,1
35725380,1,0,1
35742016,1,0,1
35758652,0,1,1
35775300,0,4,1
35791940,0,4,1
35808584,0,4,1
35825220,1,0,1
35841848,1,0,1
35858504,0,0,1
35875152,1,0,1
35891784,0,1,1
35908416,0,4,1
35925064,0,1,1
35941700,0,4,1
35958336,0,4,1
35974980,0,0,1
35991632,1,1,1
36008260,0,1,1
36024888,1,0,1
36041532,0,0,1
36058184,0,4,1
36074820,0,0,1
36091464,1,0,1
36108092,0,1,1
36124744,0,1,1
36141388,0,4,1
36158024,0,4,1
36174648,0,0,1
36191300,1,0,1
36207940,0,1,1
36224572,0,1,1
36241208,1,0,1
36257860,4,4,1
36274508,1,0,1
36291132,0,0,1
36307768,0,4,1
36324416,0,1,1
36341060,0,1,1
36357692,0,4,1
36374332,0,0,1
36390980,0,1,1
36407620,0,0,1
36424248,1,0,1
36440892,1,0,1
36457536,0,0,1
36474176,0,0,1
36490808,0,0,1
36507452,0,0,1
36524096,0,0,1
36540736,0,0,1
36557372,0,1,1
36574012,0,0,1
36590664,1,0,1
36607312,0,0,1
36623944,0,0,1
36640572,0,0,1
36657216,0,0,1
36673860,0,0,1
36690492,0,1,1
36707140,1,1,1
36723788,0,0,1
36740416,0,0,1
36757052,0,0,1
36773692,0,1,1
36790336,0,4,1
36806984,0,1,1
36823620,1,1,1
36840252,1,1,1
36856900,0,0,1
36873544,1,0,1
36890184,0,4,1
36906824,0,4,1
36923460,0,0,1
36940100,0,0,1
36956728,0,0,1
36973380,1,1,1
36990032,1,1,1
37006664,0,1,1
37023304,0,1,1
37039936,0,1,1
37056580,0,4,1
37073224,0,9,1
37089860,0,4,1
37106492,0,1,1
37123140,0,0,1
37139784,0,1,1
37156412,0,9,1
37173052,0,1,1
37189696,0,0,1
37206344,0,4,1
37222984,0,1,1
37239612,0,0,1
37256260,1,1,1
37272904,0,4,1
37289532,0,1,1
37306168,0,0,1
37322824,0,1,1
37339460,0,0,1
37356092,0,1,1
37372732,0,1,1
37389380,0,1,1
37406024,0,4,1
37422652,0,1,1
37439288,0,0,1
37455936,0,0,1
37472580,0,1,1
37489212,0,1,1
37505864,0,1,1
37522508,0,0,1
37539148,0,0,1
37555772,0,1,1
37572412,0,1,1
37589056,1,0,1
37605704,0,1,1
37622332,0,1,1
37638972,0,0,1
37655616,0,0,1
37672256,0,0,1
37688888,0,0,1
37705536,0,1,1
37722188,0,0,1
37738820,0,1,1
37755452,0,1,1
37772092,0,4,1
37788740,0,0,1
37805376,0,0,1
37822012,0,4,1
37838652,0,4,1
37855304,0,1,1
37871944,0,4,1
37888576,0,1,1
37905220,0,0,1
37921868,0,0,1
37938508,1,1,1
37955132,0,0,1
37971772,0,0,1
37988408,0,0,1
38005060,0,0,1
38021688,0,0,1
38038328,1,0,1
38054976,1,0,1
38071624,0,1,1
38088252,0,1,1
38104892,0,0,1
38121536,0,0,1
38138180,0,1,1
38154808,0,0,1
38171448,0,0,1
38188096,1,0,1
38204728,0,1,1
38221384,1,1,1
38238020,4,1,1
38254660,0,0,1
38271296,0,0,1
38287928,0,0,1
38304572,0,0,1
38321228,0,1,1
38337868,0,1,1
38354492,0,0,1
38371140,0,0,1
38387780,0,0,1
38404420,0,0,1
38421056,0,0,1
38437700,0,0,1
38454340,0,1,1
38470984,0,1,1
38487612,0,0,1
38504252,0,1,1
38520904,0,9,1
38537536,1,1,1
38554172,4,1,1
38570812,1,1,1
38587460,0,1,1
38604100,0,0,1
38620744,0,4,1
38637380,0,4,1
38654008,0,0,1
38670660,0,0,1
38687288,0,0,1
38703928,1,0,1
38720584,0,1,1
38737224,0,1,1
38753864,0,1,1
38770488,0,0,1
38787144,0,0,1
38803784,0,0,1
38820424,0,1,1
38837048,0,0,1
38853700,0,0,1
38870344,1,1,1
38886984,1,4,1
38903612,0,1,1
38920260,0,4,1
38936900,0,1,1
38953528,0,0,1
38970172,0,0,1
38986820,0,1,1
39003460,0,1,1
39020092,0,1,1
39036740,0,4,1
39053384,0,1,1
39070016,0,0,1
39086652,1,1,1
39103292,0,0,1
39119948,1,0,1
39136588,1,0,1
39153216,0,4,1
39169856,0,36,1
39187548,4,9,1
39204180,0,0,1
39220820,0,0,1
39237464,0,0,1
39254100,0,0,1
39270740,0,0,1
39287372,0,1,1
39304012,0,0,1
39320660,0,0,1
39337300,0,0,1
39353932,0,1,1
39370572,0,1,1
39387212,0,0,1
39403860,0,0,1
39420492,1,0,1
39437132,0,0,1
39453780,0,0,1
39470416,0,1,1
39487052,0,1,1
39503692,0,1,1
39520340,0,1,1
39536980,0,4,1
39553620,1,0,1
39570252,0,0,1
39586896,0,0,1
39603536,0,0,1
39620180,0,0,1
39636820,0,1,1
39653460,0,1,1
39670104,1,0,1
39686728,1,0,1
39703376,0,1,1
39720020,0,4,1
39736660,0,1,1
39753292,0,1,1
39769944,1,1,1
39786580,0,1,1
39803220,0,1,1
39819852,0,1,1
39836492,0,4,1
39853140,0,1,1
39869784,0,1,1
39886424,0,1,1
39903056,0,1,1
39919696,0,0,1
39936344,0,4,1
39952968,0,9,1
39969612,0,1,1
39986260,0,4,1
40002900,0,4,1
40019540,1,0,1
40036180,0,0,1
40052824,0,1,4
40069468,0,0,4
40086092,0,1,4
40102736,0,1,4
40119380,0,1,4
40136020,0,1,4
40152652,0,0,4
40169288,0,0,4
40185936,0,0,4
40202584,0,1,4
40219212,0,1,4
40235856,0,4,4
40252508,0,0,4
40269144,0,1,4
40285772,0,1,4
40302408,0,0,4
40319060,0,0,4
40335700,0,0,4
40352328,1,0,4
40368976,0,1,4
40385616,0,1,4
40402264,0,1,4
40418888,0,0,4
40435544,0,1,4
40452188,0,1,4
40468820,1,1,4
40485468,9,4,4
40502092,81,0,4
40519780,49,9,4
40537460,1,4,4
40554096,1,1,4
40570728,16,4,4
40588420,4,16,4
40606104,0,0,4
40622756,1,1,4
40639384,1,9,4
40656016,0,0,4
40672660,9,1,4
40689292,4,0,4
40705932,36,1,4
40723620,49,0,4
40741300,0,0,4
40757940,16,4,4
40775616,1,81,4
40793304,1,576,4
40812024,4,484,4
40830744,16,81,4
40849464,36,1,4
40867148,49,9,4
40884824,81,16,4
40903528,49,36,4
40922260,9,49,4
40939948,1,9,4
40956580,9,36,4
40974248,16,16,4
40992980,4,64,4
41010664,4,144,4
41029372,225,196,4
41050180,36,25,4
41068900,64,900,4
41088656,1,225,4
41107368,36,64,4
41126112,64,256,4
41145848,64,100,4
41165620,36,81,4
41184336,25,841,4
41204108,16,729,4
41223856,4,100,4
41242580,49,4,4
41260268,1,81,4
41277936,16,4,4
41295624,1,9,4
41312244,9,16,4
41329940,64,0,4
41347624,9,25,4
41365288,1,9,4
41381940,0,1,4
41398576,4,0,4
41415212,36,64,4
41433936,121,529,4
41454744,49,81,4
41473464,0,9,4
41490096,36,121,4
41509852,64,0,4
41527544,36,49,4
41546276,1,196,4
41564984,25,441,4
41584736,64,256,4
41604500,100,256,4
41625288,256,1849,4
41647136,576,3969,4
41668972,484,1024,4
41690816,100,25,4
41710572,1,1,4
41727224,4,16,4
41744904,4,121,4
41763612,144,576,4
41784416,64,144,4
41804184,4,25,4
41821852,9,81,4
41839528,1,25,4
41857228,0,441,4
41875936,0,0,4
41892584,36,400,4
41912352,100,289,4
41933148,0,16,4
41950812,121,484,4
41971608,49,16,4
41990344,4,784,4
42009060,16,144,4
42028816,36,4,4
42046512,9,1,4
42063140,9,4,4
42079780,0,49,4
42097452,4,0,4
42114112,0,225,4
42132820,49,256,4
42152580,36,9,4
42170260,1,36,4
42187940,4,16,4
42205608,9,144,4
42224336,1,400,4
42243052,25,0,4
42260756,9,0,4
42277380,1,256,4
42296108,9,9,4
42312744,16,100,4
42332492,25,64,4
42351200,100,81,4
42370972,196,289,4
42391772,196,625,4
42412580,144,1089,4
42434404,81,324,4
42454180,121,121,4
42474992,1,16,4
42492664,1,144,4
42511384,0,4,4
42528020,16,16,4
42546736,16,0,4
42564416,9,64,4
42582104,1,36,4
42599776,4,441,4
42618492,49,1089,4
42639292,144,441,4
42660116,100,441,4
42680900,1,144,4
42699616,16,0,4
42717308,9,16,4
42734980,0,16,4
42752652,0,25,4
42770328,0,25,4
42788020,0,25,4
42805696,25,25,4
42824424,64,1,4
42842100,1,9,4
42858744,100,49,4
42878512,64,49,4
42897220,25,9,4
42914904,36,16,4
42933628,1,225,4
42952344,64,36,4
42971060,36,225,4
42990824,1,81,4
43008492,16,0,4
43026176,1,169,4
43044904,1,529,4
43063616,16,121,4
43083372,16,0,4
43101052,0,0,4
43117700,4,4,4
43134336,9,0,4
43150980,36,1,4
43168660,36,25,4
43187376,36,0,4
43205056,0,121,4
43223780,25,484,4
43243544,49,81,4
43262260,9,121,4
43280980,1,81,4
43298664,0,25,4
43316344,1,100,4
43335072,1,4,4
43351700,1,49,4
43369372,1,36,4
43387064,1,100,4
43405780,4,9,4
43422424,1,1,4
43439056,0,1,4
43455712,1,36,4
43473380,9,4,4
43490008,9,0,4
43506644,16,1,4
43524344,16,196,4
43544108,16,81,4
43562816,4,9,4
43579464,1,9,4
43596100,1,0,4
43612736,9,16,4
43630424,1,1,4
43647060,16,49,4
43665776,9,9,4
43682428,1,1,4
43699064,0,121,4
43717780,4,784,4
43736496,81,361,4
43756260,121,64,4
43776020,4,361,4
43794748,49,25,4
43813464,1,36,4
43831140,4,100,4
43849860,144,225,4
43870648,324,529,4
43891464,169,400,4
43912268,81,0,4
43929936,16,441,4
43949700,1,1444,4
43969440,9,1681,4
43989220,81,961,4
44008976,81,441,4
44028736,1,49,4
44046412,64,4900,4
44067216,36,1156,4
44088012,484,16,4
44107768,64,484,4
44127532,81,100,4
44147292,169,36,4
44167068,49,484,4
44186812,0,256,4
44205532,256,0,4
44224256,25,144,4
44244024,4,576,4
44262748,1,0,4
44279376,9,400,4
44298096,0,256,4
44316820,36,4,4
44334504,81,4,4
44352176,25,36,4
44370884,4,9,4
44387540,4,36,4
44405220,4,4,4
44421856,0,9,4
44438488,0,100,4
44457220,16,225,4
44476972,25,169,4
44496740,36,81,4
44515468,4,36,4
44533152,16,169,4
44552904,25,961,4
44572640,121,1296,4
44594512,225,484,4
44615296,49,100,4
44635056,49,169,4
44654824,9,49,4
44672492,0,256,4
44691216,4,36,4
44708908,9,1,4
44725556,49,25,4
44744264,16,1,4
44761936,4,16,4
44779628,9,1,4
44796260,0,1,4
44812888,100,81,4
44832652,196,169,4
44853460,64,100,4
44873212,0,144,4
44891936,25,4,4
44909628,25,121,4
44929384,25,196,4
44949132,64,36,4
44967852,16,25,4
44986600,4,9,4
45003220,0,4,4
45019860,4,16,4
45037536,1,49,4
45055212,16,484,4
45074980,81,1444,4
45095780,100,121,4
45116592,144,25,4
45136340,9,64,4
45154020,0,64,4
45171684,4,64,4
45189384,4,4,4
45206016,36,4,4
45223692,16,36,4
45242428,25,324,4
45262176,121,256,4
45282972,49,0,4
45300656,1,1,4
45317304,16,64,4
45336032,25,1,4
45353700,4,1,4
45370332,49,9,4
45388016,49,36,4
45406740,1,16,4
45424420,36,0,4
45442100,196,64,4
45461864,100,121,4
45482656,25,81,4
45501368,16,9,4
45519060,4,0,4
45535700,1,16,4
45553388,1,49,4
45571044,0,441,4
45589780,36,196,4
45609540,64,1,4
45627208,0,576,4
45645940,16,1024,4
45666728,16,64,4
45685456,0,36,4
45703136,81,225,4
45722900,81,256,4
45742660,64,16,4
45761384,49,81,4
45780112,1,225,4
45798824,64,169,4
45818572,81,289,4
45838332,16,1,4
45856028,4,625,4
45874728,4,1156,4
45894508,64,1024,4
45915312,49,361,4
45935064,36,1,4
45952740,9,4,4
45969380,9,1,4
45986036,1,25,4
46003704,16,4,4
46021384,25,144,4
46041144,64,324,4
46060900,49,4,4
46078580,4,441,4
46097296,121,484,4
46118108,9,64,4
46135776,36,81,4
46154496,25,289,4
46174260,9,9,4
46190908,16,121,4
46210660,0,256,4
46229376,16,256,4
46249140,9,49,4
46266820,49,169,4
46286580,100,361,4
46307384,64,4,4
46325060,9,64,4
46342728,4,324,4
46361452,36,1296,4
46382264,81,196,4
46402016,49,16,4
46420732,0,16,4
46438416,0,36,4
46456096,0,16,4
46473784,25,1,4
46491452,25,1,4
46509160,4,1,4
46525796,16,16,4
46544500,16,1,4
46562176,4,529,4
46580900,0,49,4
46598580,36,576,4
46618340,25,49,4
46637048,9,1,4
46653704,0,1,4
46670340,1,0,4
46686976,16,0,4
46704672,4,9,4
46721312,4,0,4
46737952,1,1,4
46754588,1,81,4
46772256,0,49,4
46789944,0,4,4
46806572,0,0,4
46823224,1,0,4
46839864,16,9,4
46857536,16,289,4
46877300,1,256,4
46896024,1,1,4
46912660,1,0,4
46929304,1,16,4
46946972,0,1,4
46963608,0,0,4
46980268,1,100,4
46998976,0,225,4
47017692,0,4,4
47034332,1,36,4
47052028,4,196,4
47070748,16,289,4
47090500,16,121,4
47110256,9,9,4
47126900,0,0,4
47143536,0,36,4
47161216,0,36,4
47178908,1,25,4
47196588,25,9,4
47214260,25,16,4
47232976,1,1,4
47249628,0,49,4
47267296,0,36,4
47284992,1,1,4
47301616,4,324,4
47320344,64,961,4
47340088,100,1156,4
47361936,144,1024,4
47383780,64,81,4
47402500,25,9,4
47420188,0,1,4
47436828,0,0,4
47453460,0,16,4
47471148,1,36,4
47488820,49,16,4
47507552,25,25,4
47526260,9,64,4
47543936,0,100,4
47562656,0,121,4
47581392,9,64,4
47599064,1,25,4
47616736,4,484,4
47635444,25,2304,4
47656264,144,900,4
47677048,49,100,4
47696816,36,400,4
47716584,16,100,4
47736348,4,144,4
47755068,16,9,4
47772744,0,81,4
47790420,1,81,4
47808100,1,529,4
47826820,36,16,4
47845544,1,36,4
47863216,16,49,4
47881944,1,9,4
47898576,4,16,4
47916272,25,0,4
47933932,1,0,4
47950584,1,16,4
47968264,16,16,4
47986972,49,289,4
48006736,25,225,4
48026492,64,25,4
48045228,25,9,4
48062908,1,1,4
48079544,1,0,4
48096176,4,49,4
48113860,4,64,4
48131540,1,64,4
48149216,1,49,4
48166896,9,1,4
48183548,9,289,4
48202268,25,484,4
48222020,1,0,4
48238660,0,144,4
48257376,36,25,4
48276096,16,4,4
48293776,1,576,4
48312496,49,1156,4
48333300,225,169,4
48354092,121,36,4
48373864,0,1,4
48390500,0,256,4
48409212,16,81,4
48427936,1,1,4
48444592,16,1,4
48462252,0,9,4
48478896,1,25,4
48496568,4,361,4
48515296,25,81,4
48534024,4,16,4
48551696,0,49,4
48569384,0,1,4
48586020,1,25,4
48603704,0,0,4
48620332,0,0,4
48636984,1,1,4
48653624,4,4,4
48670252,25,25,4
48688980,64,144,4
48708740,121,225,4
48729544,144,9,4
48748256,121,4,4
48766972,4,16,4
48784668,9,36,4
48802352,9,4,4
48818988,9,4,4
48835624,0,49,4
48853300,1,64,4
48870976,25,9,4
48888664,1,4,4
48905300,4,25,4
48922980,1,1,4
48939608,4,64,4
48957300,1,289,4
48976028,4,169,4
48994740,64,100,4
49014496,81,36,4
49033220,9,16,4
49050900,0,49,4
49068580,16,100,4
49088340,16,256,4
49108112,4,36,4
49125780,4,169,4
49144504,64,484,4
49164252,25,169,4
49184028,9,25,4
49201700,16,49,4
49220412,4,4,4
49237068,4,324,4
49255776,64,289,4
49275536,36,25,4
49294244,16,121,4
49314028,49,0,4
49331700,9,625,4
49350416,81,256,4
49370180,81,64,4
49388912,1,64,4
49406580,36,36,4
49425300,49,16,4
49444020,36,196,4
49463772,64,64,4
49482504,1,9,4
49499128,0,25,4
49516824,0,4,4
49533464,9,0,4
49550104,9,9,4
49566740,4,100,4
49585472,64,625,4
49605208,196,484,4
49626012,100,1,4
49644748,0,144,4
49663460,4,9,4
49680104,25,25,4
49698824,4,36,4
49716512,1,16,4
49734176,9,81,4
49751860,1,225,4
49770580,16,400,4
49790336,100,729,4
49811140,121,1,4
49829848,49,256,4
49849624,0,1,4
49866272,1,4,4
49882896,4,81,4
49900584,16,484,4
49920344,196,529,4
49941140,100,25,4
49960892,9,1,4
49977540,4,1,4
49994180,36,4,4
50011868,1,225,4
50030572,25,81,4
50049316,25,16,4
50068016,16,36,3
50086732,36,100,3
50106508,144,121,3
50127304,196,64,3
50147060,49,4,3
50164724,9,25,3
50182428,1,100,3
50201140,16,36,3
50219856,9,16,3
50237548,1,81,3
50255220,36,100,3
50274980,121,1,3
50293692,9,144,3
50312428,9,0,3
50329060,4,81,3
50346740,4,25,3
50364408,25,49,3
50383140,16,9,3
50400812,25,0,3
50418488,1,4,3
50435144,36,9,3
50452824,0,4,3
50469472,16,1,3
50487148,0,49,3
50504820,4,121,3
50523544,1,1,3
50540180,4,0,3
50556820,4,4,3
50573468,9,36,3
50591148,4,1,3
50607784,1,81,3
50625452,1,144,3
50644184,36,225,3
50663944,25,196,3
50683696,36,9,3
50701384,25,25,3
50720104,1,25,3
50737780,0,1,3
50754424,25,36,3
50773140,16,0,3
50790824,0,16,3
50808516,0,1,3
50825140,0,16,3
50842820,1,196,3
50861524,16,900,3
50881288,81,289,3
50901060,49,36,3
50919780,0,4,3
50936412,0,25,3
50954100,1,0,3
50970744,0,81,3
50988424,64,441,3
51008176,100,169,3
51028980,49,36,3
51047708,1,16,3
51065384,4,441,3
51084092,36,256,3
51103860,121,16,3
51123616,16,4,3
51141292,0,0,3
51157924,16,289,3
51177700,36,16,3
51196404,256,1521,3
51218248,144,256,3
51239068,81,81,3
51257780,1,121,3
51276496,9,25,3
51294176,0,25,3
51311864,16,1,3
51329532,1,36,3
51347208,1,625,3
51365940,16,961,3
51385704,81,16,3
51404408,25,64,3
51423140,1,16,3
51440832,49,49,3
51459540,9,25,3
51477216,25,9,3
51494896,1,100,3
51513624,81,1,3
51531304,49,196,3
51551052,9,16,3
51568744,4,16,3
51586424,25,4,3
51604092,0,100,3
51622816,9,64,3
51640512,25,9,3
51658180,16,9,3
51675852,0,16,3
51693532,9,0,3
51710176,36,81,3
51728904,4,36,3
51746588,25,4,3
51764268,4,16,3
51781948,0,81,3
51799620,81,36,3
51818340,36,1,3
51836020,1,64,3
51853712,1,36,3
51871384,64,1,3
51889052,100,0,3
51907780,25,0,3
51925452,0,1,3
51942092,16,36,3
51960808,196,64,3
51980580,64,4,3
51998260,4,9,3
52014900,4,0,3
52031544,9,36,3
52049228,1,25,3
52066904,36,16,3
52085616,144,49,3
52105384,100,169,3
52126184,0,25,3
52143864,49,1,3
52161532,25,0,3
52179228,625,16,3
52198976,784,121,3
52219792,9,9,3
52236420,25,324,3
52256168,196,81,3
52275936,49,25,3
52294676,0,100,3
52313388,9,25,3
52331056,9,0,3
52347704,1,4,3
52364336,1,36,3
52382028,25,81,3
52400732,16,16,3
52419464,1,9,3
52436108,4,64,3
52453776,9,36,3
52471460,64,4,3
52489136,144,4,3
52507868,49,0,3
52525540,25,9,3
52543220,1,81,3
52560908,36,1,3
52578588,4,9,3
52595228,169,4,3
52613940,121,16,3
52633704,25,16,3
52652420,0,1,3
52669060,16,1,3
52686740,169,64,3
52706500,324,121,3
52727296,81,16,3
52746024,4,1,3
52762668,0,0,3
52779300,9,0,3
52795948,4,1,3
52812580,225,9,3
52831312,81,9,3
52848984,16,1,3
52866660,100,0,3
52885368,81,0,3
52903064,49,1,3
52920740,4,4,3
52937388,4,36,3
52955052,100,9,3
52973788,36,0,3
52991460,1,4,3
53008100,9,4,3
53024728,81,9,3
53042416,64,16,3
53061148,1,4,3
53077772,25,0,3
53095460,4,0,3
53112112,49,0,3
53129772,25,0,3
53147452,4,4,3
53164100,25,0,3
53181780,16,0,3
53199468,4,1,3
53216088,121,0,3
53234828,1,1,3
53251464,196,4,3
53270168,64,16,3
53288892,9,4,3
53305544,100,1,3
53324260,324,4,3
53342980,49,9,3
53360672,49,4,3
53378340,256,9,3
53397056,49,0,3
53414736,81,0,3
53432420,324,0,3
53451148,9,4,3
53467784,36,0,3
53485452,121,0,3
53504180,625,16,3
53523932,256,9,3
53542664,49,0,3
53560340,64,0,3
53578028,0,1,3
53594656,256,0,3
53613372,289,1,3
53632100,81,0,3
53649780,0,4,3
53666420,121,4,3
53685136,36,1,3
53702824,9,0,3
53719460,49,4,3
53737132,49,1,3
53754816,4,0,3
53771468,9,1,3
53788104,196,0,3
53806824,256,16,3
53826592,1,1,3
53843232,36,4,3
53860904,36,1,3
53878588,4,1,3
53895224,25,0,3
53912908,9,49,3
53930572,256,4,3
53949308,100,4,3
53968036,1,4,3
53984676,9,4,3
54001300,25,1,3
54018976,169,4,3
54037712,16,4,3
54055380,64,4,3
54073056,16,49,3
54091772,169,16,3
54111548,225,1,3
54130264,4,1,3
54146896,144,9,3
54165628,64,0,3
54183316,1,1,3
54199936,4,0,3
54216580,0,0,3
54233228,4,1,3
54249868,289,1,3
54268568,529,0,3
54287288,196,9,3
54306028,49,1,3
54323704,16,0,3
54341376,81,0,3
54359060,144,4,3
54377792,225,9,3
54396500,196,0,3
54415220,4,1,3
54431868,0,4,3
54448504,0,4,3
54465140,100,0,3
54483860,121,1,3
54502588,0,0,3
54519220,256,16,3
54538968,256,16,3
54558740,0,9,3
54575376,4,4,3
54592016,0,0,3
54608648,1,0,3
54625300,64,0,3
54642996,81,0,3
54660664,25,1,3
54678340,144,4,3
54697060,225,9,3
54715780,36,4,3
54733460,4,1,3
54750100,9,4,3
54766740,100,1,3
54785448,169,0,3
54804180,25,4,3
54821852,0,1,3
54838508,1,0,3
54855136,16,0,3
54872820,1,1,3
54889452,100,4,3
54908176,16,4,3
54925876,144,1,3
54944572,400,4,3
54963300,64,4,3
54980984,121,1,3
54999692,324,4,3
55018420,196,0,3
55037148,256,16,3
55056904,16,0,3
55074588,289,1,3
55093300,256,16,3
55113072,0,4,3
55129704,9,0,3
55146332,64,1,3
55164020,144,1,3
55182736,25,1,3
55200412,16,0,3
55218088,0,4,3
55234736,144,4,3
55253464,81,1,3
55271136,0,0,3
55287768,1,0,3
55304424,9,0,3
55321056,4,0,3
55337692,81,0,3
55355368,81,9,3
55373056,9,0,3
55389692,9,4,3
55406340,36,0,3
55424020,64,0,3
55441696,25,0,3
55459380,144,0,3
55478100,9,0,3
55494740,0,0,3
55511380,25,9,3
55529052,25,25,3
55547776,25,4,3
55565468,4,0,3
55582108,1,1,3
55598732,16,0,3
55616420,49,9,3
55634108,1,4,3
55650728,9,0,3
55667384,1,1,3
55684008,49,1,3
55701700,225,16,3
55721452,81,36,3
55740184,0,1,3
55756820,1,4,3
55773460,9,1,3
55790108,81,1,3
55807776,64,1,3
55825472,4,1,3
55842100,4,0,3
55858740,0,4,3
55875376,9,0,3
55892020,16,9,3
55909712,64,36,3
55928416,49,9,3
55946100,4,0,3
55962740,144,16,3
55982504,25,36,3
56001224,49,4,3
56018896,121,1,3
56037620,16,9,3
56055292,1,0,3
56071940,9,0,3
56088584,196,4,3
56107304,169,1,3
56126020,49,0,3
56143700,121,4,3
56162420,49,0,3
56180100,4,0,3
56196744,1,16,3
56214420,4,16,3
56232108,4,36,3
56249776,81,1,3
56267460,100,121,3
56288260,25,121,3
56308024,0,25,3
56325692,0,1,3
56342332,36,0,3
56360020,9,9,3
56376668,1,25,3
56394332,81,16,3
56413060,196,1,3
56431780,25,9,3
56449452,4,9,3
56466096,16,0,3
56483776,100,1,3
56502500,324,1,3
56521220,289,0,3
56539940,49,4,3
56557620,0,9,3
56574264,25,0,3
56591928,144,1,3
56610648,16,4,3
56628344,36,4,3
56646028,100,0,3
56664736,289,16,3
56684488,441,64,3
56704264,9,16,3
56721948,16,4,3
56739628,144,1,3
56758344,9,25,3
56776028,441,9,3
56794744,676,36,3
56814492,1,1,3
56831140,289,0,3
56849864,196,0,3
56868580,49,25,3
56887292,1,4,3
56903952,4,4,3
56920580,36,4,3
56938264,0,25,3
56955944,9,0,3
56972580,16,9,3
56990260,4,36,3
57007940,1,1,3
57024580,64,0,3
57042260,196,0,3
57060980,4,4,3
57077620,144,0,3
57096340,144,1,3
57115052,0,0,3
57131696,0,4,3
57148336,144,1,3
57167072,441,16,3
57186820,0,9,3
57203452,625,1,3
57222180,196,16,3
57241952,1,1,3
57258580,196,36,3
57278336,256,49,3
57298104,4,0,3
57314736,25,0,3
57332416,25,16,3
57351132,4,0,3
57367780,25,9,3
57385468,4,1,3
57402108,4,1,3
57418728,36,9,3
57436428,0,16,3
57454096,0,16,3
57471772,16,0,3
57489464,49,0,3
57507140,441,1,3
57525852,225,4,3
57544584,4,1,3
57561216,400,16,3
57580980,169,25,3
57600744,0,1,3
57617376,0,1,3
57634024,0,0,3
57650656,1,0,3
57667296,81,1,3
57684976,121,0,3
57703700,16,9,3
57721388,64,0,3
57739052,289,1,3
57757784,196,1,3
57776508,4,1,3
57793136,121,4,3
57811864,25,1,3
57829552,49,1,3
57847208,25,9,3
57864892,4,9,3
57881544,1,1,3
57898180,64,4,3
57915864,9,1,3
57932496,169,25,3
57952252,169,4,3
57970972,16,0,3
57988652,81,16,3
58007380,4,0,3
58024028,225,9,3
58042748,81,36,3
58061456,1,25,3
58079132,1,0,3
58095780,121,36,3
58115532,324,16,3
58135296,81,1,3
58152984,16,4,3
58170672,324,4,3
58189380,225,9,3
58208100,1,25,3
58225780,16,0,3
58243472,64,4,3
58261140,100,16,3
58280896,0,0,3
58297540,0,0,3
58314184,144,1,3
58332892,400,0,3
58351624,400,1,3
58370352,1,0,3
58386988,64,16,3
58405696,1,1,3
58422340,1,16,3
58440024,36,4,3
58457704,144,0,3
58476416,81,4,3
58494100,1,4,3
58510740,25,0,3
58528420,9,0,3
58545056,100,0,3
58563784,100,4,3
58582500,1,0,3
58599136,4,4,3
58615776,100,4,3
58634500,121,16,3
58654256,36,25,3
58672972,4,16,3
58690668,4,4,3
58707316,1,4,3
58723944,121,0,3
58742660,196,9,3
58761376,49,0,3
58779060,16,0,3
58796744,36,4,3
58814416,169,16,3
58834184,16,9,3
58851868,81,4,3
58869540,16,25,3
58888272,16,1,3
58905944,4,4,3
58922572,9,64,3
58940260,4,64,3
58957940,1,1,3
58974584,0,1,3
58991212,9,0,3
59007860,169,1,3
59026572,169,0,3
59045296,49,4,3
59062984,529,1,3
59081696,484,25,3
59101472,25,4,3
59119144,36,0,3
59136808,16,0,3
59154496,81,0,3
59172188,400,4,3
59190912,9,9,3
59207536,256,4,3
59226260,36,16,3
59244972,4,0,3
59261616,25,9,3
59279288,49,0,3
59296984,1,25,3
59314664,1,1,3
59331292,1,4,3
59347940,4,4,3
59364584,0,1,3
59381220,4,9,3
59397860,1,1,3
59414496,81,9,3
59432176,196,9,3
59450908,100,16,3
59470660,4,49,3
59488344,49,4,3
59506016,441,9,3
59524732,100,4,3
59543456,4,1,3
59560096,0,0,3
59576736,25,0,3
59594416,9,0,3
59611056,25,0,3
59628748,81,0,3
59646424,36,1,3
59664096,1,0,3
59680732,0,1,3
59697384,16,0,3
59715060,100,4,3
59733780,4,4,3
59750424,25,4,3
59768100,100,4,3
59786812,64,0,3
59804496,16,1,3
59822172,9,0,3
59838816,25,0,3
59856504,4,1,3
59873140,25,1,3
59890820,4,4,3
59907460,1,0,3
59924100,81,1,3
59941780,121,9,3
59960508,1,4,3
59977140,0,4,3
59993772,16,1,3
60011448,16,1,3
60029148,121,0,3
60047864,100,1,3
60066584,4,1,7
60083224,0,16,7
60100908,36,1,7
60118572,25,4,7
60136248,16,0,7
60153948,1,4,7
60170580,1,1,7
60187212,0,0,7
60203864,1,0,7
60220508,9,0,7
60237144,49,0,7
60254812,49,1,7
60272504,25,1,7
60290180,4,4,7
60306816,0,0,7
60323456,1,4,7
60340092,1,0,7
60356748,25,1,7
60374424,100,1,7
60393132,36,1,7
60410824,196,1,7
60429552,225,16,7
60449308,1,25,7
60466984,25,1,7
60484664,81,9,7
60502344,49,9,7
60520024,4,9,7
60536656,64,16,7
60555380,441,36,7
60575144,100,100,7
60595932,0,900,7
60614652,1,484,7
60633388,1,2209,7
60653128,49,7744,7
60673932,400,3721,7
60695784,225,225,7
60716588,49,0,7
60734252,9,9,7
60750896,0,0,7
60767548,1,25,7
60785220,1,0,7
60801852,0,25,7
60819544,4,1,7
60836188,1,0,7
60852820,9,9,7
60869460,0,0,7
60886100,1,4,7
60902752,4,0,7
60919380,1,1,7
60936020,1,4,7
60952656,0,0,7
60969300,1,0,7
60985932,0,0,7
61002576,1,0,7
61019224,4,0,7
61035860,1,4,7
61052500,0,4,7
61069132,0,0,7
61085780,0,0,7
61102420,4,1,7
61119052,0,1,7
61135688,1,0,7
61152344,0,0,7
61168988,0,4,7
61185620,1,1,7
61202252,1,0,7
61218892,0,4,7
61235536,0,0,7
61252184,0,0,7
61268824,0,1,7
61285460,0,0,7
61302104,0,1,7
61318732,0,4,7
61335368,0,0,7
61352020,0,0,7
61368660,0,0,7
61385292,1,0,7
61401928,0,0,7
61418580,1,1,7
61435220,1,0,7
61451860,1,0,7
61468500,0,0,7
61485140,0,1,7
61501780,0,0,7
61518424,0,1,7
61535052,0,0,7
61551708,1,0,7
61568344,0,0,7
61584968,0,0,7
61601612,0,0,7
61618264,1,1,7
61634896,1,0,7
61651532,0,0,7
61668184,0,1,7
61684832,0,0,7
61701460,0,0,7
61718096,0,1,7
61734732,0,0,7
61751380,0,0,7
61768024,0,1,7
61784664,0,1,7
61801296,0,1,7
61817944,0,1,7
61834576,0,0,7
61851212,0,0,7
61867860,0,0,7
61884512,0,1,7
61901140,1,1,7
61917772,0,0,7
61934412,0,0,7
61951060,0,4,7
61967700,0,4,7
61984340,0,0,7
62000976,0,1,7
62017620,1,1,7
62034256,0,0,7
62050892,0,1,7
62067544,0,4,7
62084188,0,0,7
62100816,0,0,7
62117452,1,1,7
62134104,1,1,7
62150744,1,1,7
62167392,0,1,7
62184024,0,0,7
62200652,0,0,7
62217300,0,0,7
62233936,0,0,7
62250568,0,0,7
62267224,0,1,7
62283860,0,0,7
62300496,0,0,7
62317128,0,0,7
62333768,0,0,7
62350420,0,0,7
62367060,0,0,7
62383700,0,0,7
62400332,0,1,7
62416976,0,0,7
62433620,0,0,7
62450248,0,0,7
62466896,0,0,7
62483556,0,1,7
62500180,0,0,7
62516808,0,1,7
62533452,0,1,7
62550100,0,0,7
62566736,0,0,7
62583380,0,0,7
62600012,0,1,7
62616660,0,0,7
62633300,1,0,7
62649928,0,0,7
62666568,0,0,7
62683224,0,1,7
62699860,0,0,7
62716492,0,0,7
62733132,0,1,7
62749776,0,0,7
62766416,0,0,7
62783064,1,1,7
62799704,1,0,7
62816336,0,0,7
62832980,0,1,7
62849612,0,1,7
62866256,0,4,7
62882900,0,1,7
62899536,0,0,7
62916172,0,1,7
62932808,0,0,7
62949460,0,0,7
62966100,0,0,7
62982728,0,0,7
62999368,1,0,7
63016016,0,0,7
63032656,1,0,7
63049288,0,0,7
63065928,0,0,7
63082584,0,4,7
63099220,0,1,7
63115852,0,0,7
63132500,1,0,7
63149140,0,1,7
63165780,0,1,7
63182416,0,1,7
63199056,0,1,7
63215700,0,9,7
63232340,0,4,7
63248972,0,0,7
63265608,0,0,7
63282264,0,4,7
63298908,1,4,7
63315540,1,4,7
63332172,0,4,7
63348820,0,0,7
63365456,1,9,7
63382100,1,16,7
63399784,1,1,7
63416420,1,0,7
63433064,0,1,7
63449700,0,0,7
63466332,0,4,7
63482980,1,1,7
63499620,0,0,7
63516256,0,1,7
63532892,0,1,7
63549540,0,1,7
63566180,0,0,7
63582820,1,0,7
63599464,1,1,7
63616100,0,0,7
63632744,0,1,7
63649368,0,1,7
63666012,0,1,7
63682656,0,0,7
63699300,0,0,7
63715932,0,1,7
63732580,0,0,7
63749212,0,0,7
63765856,0,0,7
63782488,0,0,7
63799132,0,1,7
63815780,0,0,7
63832416,0,0,7
63849052,1,9,7
63865700,1,9,7
63882340,1,0,7
63898968,0,0,7
63915608,0,0,7
63932248,4,0,7
63948900,4,0,7
63965540,0,1,7
63982172,0,9,7
63998820,1,16,7
64016512,1,1,7
64033144,0,1,7
64049772,0,4,7
64066412,0,0,7
64083056,0,0,7
64099700,1,0,7
64116340,1,0,7
64132976,0,0,7
64149620,0,0,7
64166260,0,1,7
64182896,0,1,7
64199544,0,1,7
64216188,0,0,7
64232824,0,1,7
64249456,0,4,7
64266092,0,0,7
64282740,1,0,7
64299384,0,1,7
64316024,0,1,7
64332664,0,9,7
64349300,0,4,7
64365936,1,0,7
64382568,1,1,7
64399208,0,16,7
64416900,0,4,7
64433540,0,0,7
64450168,1,0,7
64466812,1,0,7
64483456,0,0,7
64500096,0,0,7
64516740,1,0,7
64533372,0,0,7
64550020,1,0,7
64566660,0,0,7
64583292,0,0,7
64599928,0,0,7
64616580,0,0,7
64633220,1,0,7
64649852,0,0,7
64666492,0,1,7
64683132,0,0,7
64699776,0,0,7
64716424,1,0,7
64733060,1,0,7
64749696,0,1,7
64766340,0,1,7
64782972,0,0,7
64799616,0,1,7
64816264,0,4,7
64832896,0,0,7
64849540,1,0,7
64866180,1,0,7
64882820,0,1,7
64899460,1,0,7
64916092,0,0,7
64932732,0,0,7
64949376,0,0,7
64966016,0,0,7
64982652,0,0,7
64999304,1,1,7
65015940,1,1,7
65032576,0,0,7
65049224,1,4,7
65065860,0,0,7
65082500,0,0,7
65099136,1,0,7
65115780,1,4,7
65132412,0,4,7
65149064,0,4,7
65165700,4,4,7
65182328,1,0,7
65198972,0,0,7
65215616,0,4,7
65232260,0,9,7
65248892,0,16,7
65266572,0,9,7
65283224,0,1,7
65299868,0,1,7
65316484,0,0,7
65333128,0,9,7
65349788,0,1,7
65366428,0,1,7
65383048,1,0,7
65399696,1,0,7
65416340,0,0,7
65432976,0,0,7
65449612,0,1,7
65466252,0,1,7
65482896,0,64,7
65500584,0,729,7
65519292,16,529,7
65539052,36,0,7
65556740,0,64,7
65574424,4,25,7
65592096,0,36,7
65609780,1,4,7
65626436,1,4,7
65643060,1,100,7
65661780,0,49,7
65679460,16,1,7
65697136,0,4,7
65713772,4,1,7
65730420,0,64,7
65748096,0,49,7
65765780,0,81,7
65783448,4,256,7
65802172,9,100,7
65820908,9,0,7
65837528,0,36,7
65855220,0,25,7
65872896,1,9,7
65889548,4,4,7
65906176,1,4,7
65922812,0,729,7
65941540,4,625,7
65960264,49,4,7
65977944,1,0,7
65994576,0,4,7
66011224,4,9,7
66027868,0,36,7
66045536,0,25,7
66063212,9,1,7
66079856,0,0,7
66096500,4,1,7
66113132,0,1,7
66129780,4,1,7
66146424,0,1,7
66163060,1,0,7
66179692,4,4,7
66196328,0,1,7
66212980,0,81,7
66230672,1,16,7
66248336,0,1,7
66264984,1,0,7
66281628,0,9,7
66298268,1,0,7
66314908,1,1,7
66331536,0,441,7
66350260,4,961,7
66368968,49,441,7
66388740,4,841,7
66407464,81,100,7
66427220,4,676,7
66445948,0,16,7
66463620,100,144,7
66484436,4,196,7
66503132,36,64,7
66521848,9,1089,7
66541620,4,1225,7
66561388,16,16,7
66580088,36,1,7
66597776,0,49,7
66615468,0,196,7
66634172,4,64,7
66651852,9,1,7
66668492,4,0,7
66685144,1,4,7
66701776,0,25,7
66719452,0,0,7
66736084,0,4,7
66752736,4,4,7
66769384,0,49,7
66787060,0,1,7
66803700,4,0,7
66820344,0,1,7
66836980,0,0,7
66853612,4,0,7
66870244,0,0,7
66886908,1,1,7
66903548,1,0,7
66920184,1,0,7
66936808,1,256,7
66955544,4,225,7
66974260,16,1,7
66991940,1,9,7
67008592,1,1,7
67025216,0,0,7
67041852,0,0,7
67058492,1,4,7
67075136,0,9,7
67091780,1,25,7
67109460,0,0,7
67126100,1,0,7
67142744,0,0,7
67159388,1,1,7
67176012,0,1,7
67192648,0,9,7
67209300,1,0,7
67225948,1,0,7
67242584,0,1,7
67259212,0,4,7
67275860,0,0,7
67292500,0,1,7
67309144,1,1,7
67325780,0,1,7
67342420,0,0,7
67359064,0,1,7
67375692,1,0,7
67392344,0,0,7
67408988,0,1,7
67425628,0,0,7
67442256,0,1,7
67458892,0,9,7
67475540,0,1,7
67492180,0,1,7
67508812,0,9,7
67525460,0,0,7
67542108,1,1,7
67558744,0,1,7
67575380,1,0,7
67592012,0,4,7
67608664,0,4,7
67625308,1,0,7
67641936,0,4,7
67658572,0,1,7
67675216,0,0,7
67691864,0,0,7
67708488,0,1,7
67725136,0,4,7
67741780,0,0,7
67758408,0,4,7
67775060,1,0,7
67791692,0,1,7
67808340,0,1,7
67824984,0,1,7
67841624,0,1,7
67858248,0,0,7
67874900,0,1,7
67891540,0,1,7
67908180,0,1,7
67924820,0,1,7
67941464,0,1,7
67958104,0,1,7
67974732,0,0,7
67991376,0,0,7
68008012,0,0,7
68024660,0,9,7
68041304,0,1,7
68057936,0,1,7
68074576,0,0,7
68091216,0,0,7
68107864,1,1,7
68124508,0,1,7
68141140,0,0,7
68157780,0,0,7
68174416,0,1,7
68191052,0,0,7
68207708,1,0,7
68224348,0,4,7
68240980,0,0,7
68257612,0,1,7
68274256,0,0,7
68290900,0,1,7
68307536,0,1,7
68324176,0,0,7
68340832,1,1,7
68357460,1,0,7
68374080,0,4,7
68390732,0,0,7
68407388,0,0,7
68424016,0,4,7
68440648,1,0,7
68457288,9,0,7
68473940,1,1,7
68490576,0,0,7
68507212,0,0,7
68523864,0,1,7
68540504,0,1,7
68557140,4,1,7
68573772,0,9,7
68590412,0,0,7
68607056,0,0,7
68623700,0,4,7
68640344,0,0,7
68656972,0,0,7
68673624,0,1,7
68690260,0,0,7
68706892,0,0,7
68723540,0,1,7
68740188,1,0,7
68756820,0,0,7
68773452,0,4,7
68790092,0,0,7
68806736,0,0,7
68823388,1,1,7
68840012,0,0,7
68856652,1,0,7
68873300,0,4,7
68889944,0,1,7
68906580,1,1,7
68923216,1,4,7
68939868,0,0,7
68956500,1,0,7
68973128,0,4,7
68989772,1,0,7
69006416,1,0,7
69023068,0,4,7
69039696,0,0,7
69056332,1,1,7
69072980,0,4,7
69089616,0,0,7
69106264,0,0,7
69122900,0,4,7
69139548,1,0,7
69156180,0,1,7
69172812,1,4,7
69189460,0,0,7
69206096,1,0,7
69222740,0,4,7
69239380,0,0,7
69256012,0,0,7
69272660,1,0,7
69289300,0,1,7
69305932,0,0,7
69322576,0,4,7
69339224,0,1,7
69355860,0,1,7
69372496,0,1,7
69389128,0,0,7
69405788,1,0,7
69422432,0,0,7
69439064,0,1,7
69455700,0,0,7
69472340,4,1,7
69488980,0,0,7
69505612,0,0,7
69522264,1,1,7
69538912,1,1,7
69555540,0,0,7
69572172,0,1,7
69588812,0,0,7
69605460,0,1,7
69622112,0,1,7
69638744,0,1,7
69655372,0,0,7
69672024,0,1,7
69688660,0,1,7
69705292,0,0,7
69721936,1,0,7
69738592,1,0,7
69755224,0,0,7
69771852,0,4,7
69788488,0,0,7
69805140,0,1,7
69821776,0,1,7
69838420,0,9,7
69855056,0,4,7
69871708,0,1,7
69888340,4,0,7
69904976,1,0,7
69921620,0,16,7
69939308,4,0,7
69955948,16,0,7
69973616,16,1,7
69991300,9,4,7
70007944,100,4,7
70026664,289,100,7
70047456,36,36,7
70066164,81,9,6
70083864,0,36,6
70101552,400,4,6
70120264,169,16,6
70140032,1,0,6
70156668,121,1,6
70175384,256,0,6
70194096,0,16,6
70211788,1,0,6
70228428,49,1,6
70246104,144,16,6
70265864,16,1,6
70283548,36,49,6
70302260,16,1,6
70319940,9,1,6
70336588,4,0,6
70353228,64,9,6
70370888,289,289,6
70391696,100,784,6
70412496,0,784,6
70431224,9,256,6
70449944,36,9,6
70467624,36,9,6
70485296,100,196,6
70506100,64,144,6
70525856,9,4,6
70542500,1,9,6
70559140,49,4,6
70576816,16,1,6
70594500,1,16,6
70612188,4,1,6
70628816,16,4,6
70646484,100,16,6
70666256,64,81,6
70684984,81,100,6
70704744,400,4,6
70723460,400,441,6
70744260,289,256,6
70765060,121,4,6
70783780,0,0,6
70800424,1,4,6
70817068,361,9,6
70835776,441,25,6
70855536,289,0,6
70874264,256,0,6
70892980,0,4,6
70909612,324,1,6
70928340,289,16,6
70948096,121,0,6
70966824,25,4,6
70984496,9,0,6
71001152,36,9,6
71018832,36,4,6
71036504,196,0,6
71055212,1600,64,6
71076024,2116,196,6
71097860,729,81,6
71117612,16,9,6
71135304,121,4,6
71154020,1,4,6
71170652,64,0,6
71188344,121,0,6
71207060,4,4,6
71223696,64,16,6
71242412,121,25,6
71262164,1024,4,6
71281940,400,100,6
71302744,1,25,6
71320420,729,0,6
71339140,4,4,6
71355776,2601,64,6
71376572,400,196,6
71397380,9,4,6
71414020,400,16,6
71433780,625,100,6
71454580,1024,16,6
71475396,1156,64,6
71496184,64,144,6
71515932,324,1,6
71534668,529,121,6
71555456,784,4,6
71574176,36,1,6
71591856,100,4,6
71610588,1,1,6
71627212,576,25,6
71646984,1089,1,6
71666740,100,9,6
71685460,324,16,6
71705212,729,64,6
71724972,36,4,6
71742664,81,4,6
71760336,784,1,6
71779064,1225,49,6
71799860,676,100,6
71820652,289,4,6
71839360,4225,81,6
71860168,9,16,6
71877856,3844,196,6
71899696,2601,196,6
71921540,961,9,6
71940268,49,81,6
71958980,576,0,6
71977696,1600,196,6
71999544,676,36,6
72019308,49,4,6
72036972,81,4,6
72054664,1225,25,6
72075448,1764,16,6
72096248,3249,81,6
72117052,2401,256,6
72138912,1369,1,6
72158640,17161,484,6
72181540,6561,529,6
72203380,121,0,6
72222108,49,0,6
72239764,100,16,6
72259516,961,1,6
72278252,1024,9,6
72298016,2500,49,6
72318816,225,81,6
72338568,1936,9,6
72358324,8649,256,6
72380164,7225,484,6
72402012,4096,361,6
72423864,625,289,6
72444664,529,25,6
72464424,1444,9,6
72484172,729,81,6
72503932,100,9,6
72522656,0,1,6
72539308,16,1,6
72556980,4,4,6
72573616,1,9,6
72590248,441,16,6
72610012,961,49,6
72629784,169,64,6
72649544,324,9,6
72668280,169,4,6
72686988,441,1,6
72705696,625,25,6
72725448,9,0,6
72742108,64,16,6
72760816,256,0,6
72779536,1296,64,6
72800344,196,81,6
72820100,9,4,6
72836736,49,9,6
72854424,784,0,6
72873132,49,25,6
72891852,3721,121,6
72913700,1764,324,6
72935540,841,0,6
72954256,400,64,6
72974004,16,121,6
72993768,289,16,6
73013540,784,25,6
73033300,529,144,6
73054100,0,0,6
73070748,841,36,6
73090496,1936,9,6
73110252,729,49,6
73130008,484,49,6
73149788,2500,9,6
73169528,36,9,6
73187208,1936,81,6
73208032,0,25,6
73225708,676,49,6
73245448,4,1,6
73262104,2500,121,6
73283936,2500,169,6
73305780,1,36,6
73323436,100,4,6
73342188,4624,36,6
73362976,3481,144,6
73384812,1,1,6
73401452,400,16,6
73421228,324,4,6
73439936,2025,36,6
73460728,1156,4,6
73480492,2704,25,6
73501284,1849,324,6
73523132,441,4,6
73541856,256,121,6
73562664,225,9,6
73581368,1296,25,6
73602180,3481,1,6
73621928,400,100,6
73642720,2916,0,6
73662492,6400,441,6
73684344,1369,196,6
73706184,121,9,6
73724908,121,0,6
73743620,100,1,6
73762336,2500,144,6
73784168,8464,400,6
73806016,1681,196,6
73827864,484,4,6
73846588,16,1,6
73864268,25,4,6
73881948,0,0,6
73898572,25,0,6
73916260,9,4,6
73932900,441,0,6
73951616,676,36,6
73971360,2025,100,6
73993220,3600,81,6
74014020,3136,100,6
74035856,4624,121,6
74057688,1681,196,6
74079540,64,25,6
74098264,1,0,6
74114896,64,1,6
74132580,0,16,6
74150260,400,1,6
74168980,169,100,6
74189776,169,0,6
74208512,81,16,6
74227224,484,4,6
74245932,900,36,6
74265708,169,4,6
74284428,256,25,6
74304164,1600,144,6
74326008,361,16,6
74345784,841,81,6
74365532,5476,256,6
74387352,2916,400,6
74409212,676,64,6
74428956,961,0,6
74447684,7056,529,6
74469540,784,361,6
74490332,121,25,6
74510104,729,0,6
74528824,529,0,6
74547540,121,121,6
74568348,961,0,6
74587044,2116,196,6
74608904,225,25,6
74628656,81,1,6
74646332,841,1,6
74665056,64,49,6
74683776,49,36,6
74702496,961,25,6
74722248,3721,1,6
74742012,361,144,6
74762808,5041,196,6
74784652,1024,324,6
74806492,100,25,6
74826252,64,49,6
74844968,2209,169,6
74866812,1225,9,6
74886564,1156,1,6
74906332,484,0,6
74925044,2025,121,6
74946904,36,0,6
74964596,16,9,6
74982248,36,49,6
75000988,225,25,6
75020716,36,25,6
75039448,1600,144,6
75061300,100,25,6
75081056,324,100,6
75101860,64,1,6
75119520,324,81,6
75139304,1225,1,6
75159072,4,25,6
75176736,64,16,6
75195460,225,0,6
75214172,1,0,6
75230808,1764,49,6
75251612,529,121,6
75272420,1089,4,6
75292180,2704,121,6
75314012,784,16,6
75333776,729,16,6
75353532,1849,81,6
75374328,2209,81,6
75395144,2209,144,6
75416964,2025,196,6
75438804,3721,225,6
75460660,289,256,6
75481464,196,0,6
75500176,36,4,6
75517856,169,36,6
75537624,961,36,6
75557360,625,49,6
75577132,529,25,6
75596904,64,9,6
75614580,144,0,6
75633292,576,9,6
75652012,400,49,6
75671772,2401,25,6
75692580,12100,484,6
75715452,529,256,6
75736256,1849,64,6
75757068,529,16,6
75776832,1,9,6
75793452,676,16,6
75813220,324,4,6
75831940,36,49,6
75850652,961,64,6
75870424,1600,169,6
75892264,144,9,6
75910972,169,1,6
75929708,1225,0,6
75949464,1369,121,6
75971288,2704,196,6
75993132,1764,100,6
76014976,729,9,6
76033692,256,36,6
76053452,1089,0,6
76073220,25,16,6
76091948,324,81,6
76111696,529,49,6
76131444,25,9,6
76149132,2809,4,6
76168884,361,36,6
76188644,49,0,6
76206340,625,25,6
76226096,1444,25,6
76246900,1,36,6
76264592,100,25,6
76284340,9,1,6
76300976,36,0,6
76318640,5041,9,6
76338408,5625,289,6
76360256,1,49,6
76377924,2601,169,6
76399784,2809,121,6
76421620,49,1,6
76439292,1296,36,6
76460100,576,36,6
76479856,25,4,6
76497540,784,9,6
76516252,729,81,6
76536008,0,9,6
76552648,1225,9,6
76572416,289,4,6
76591136,576,16,6
76610908,64,1,6
76628584,484,36,6
76648340,289,36,6
76668104,16,4,6
76685776,4,1,6
76702404,225,4,6
76721132,3364,1,6
76740896,36,196,6
76760660,4489,4,6
76780420,1681,225,6
76802264,16,1,6
76819920,1089,25,6
76840736,2116,81,6
76861544,25,121,6
76881304,900,64,6
76901060,361,144,6
76921844,1156,16,6
76942664,784,81,6
76962420,324,49,6
76982184,729,25,6
77001932,529,1,6
77020648,1849,0,6
77040420,1444,121,6
77062268,400,64,6
77082028,25,1,6
77099700,4,9,6
77116340,1,1,6
77132984,4,16,6
77150648,841,0,6
77169376,900,121,6
77190188,289,9,6
77208900,676,0,6
77227612,529,36,6
77247372,25,4,6
77265068,100,9,6
77283784,289,0,6
77302492,625,16,6
77322228,64,81,6
77340976,4225,49,6
77361784,961,400,6
77382580,25,4,6
77400268,121,16,6
77420012,576,9,6
77438736,196,121,6
77459536,324,81,6
77479300,16,0,6
77496984,121,0,6
77515700,36,4,6
77533384,0,0,6
77550020,9,9,6
77566652,1681,16,6
77587444,1225,49,6
77608256,64,25,6
77626980,289,36,6
77646732,225,4,6
77665460,484,0,6
77684156,1444,81,6
77704968,3364,196,6
77726824,1,1,6
77743456,324,64,6
77763212,1024,36,6
77784000,1296,121,6
77805860,9,49,6
77823532,36,16,6
77842264,1,0,6
77858904,36,9,6
77876580,9,1,6
77893228,36,1,6
77910908,0,4,6
77927540,256,1,6
77946260,1600,1,6
77966016,529,49,6
77985776,1,1,6
78002420,49,16,6
78021144,169,4,6
78039864,361,16,6
78059608,81,4,6
78077296,4,9,6
78093932,0,0,6
78110580,4,4,6
78127224,121,1,6
78145944,81,49,6
78164652,81,4,6
78182336,49,4,6
78200024,81,1,6
78217696,64,0,6
78235372,196,36,6
78255136,484,4,6
78273860,900,256,6
78294664,324,9,6
78313372,16,4,6
78331068,729,9,6
78349776,576,196,6
78370572,441,121,6
78391388,676,16,6
78411144,144,16,6
78430896,1,49,6
78448568,484,49,6
78468340,1521,144,6
78490164,676,196,6
78510984,16,1,6
78528656,225,25,6
78548412,324,9,6
78567144,121,4,6
78585844,256,16,6
78605624,784,36,6
78625368,16,64,6
78644104,121,4,6
78662824,49,0,6
78680508,0,4,6
78697140,49,9,6
78714800,0,4,6
78731460,144,4,6
78750184,169,1,6
78768908,256,9,6
78787628,36,16,6
78806340,1,0,6
78822976,36,1,6
78840660,1,4,6
78857304,676,0,6
78876016,2025,36,6
78896812,1681,64,6
78917608,324,25,6
78937384,4,9,6
78954020,121,0,6
78972732,25,0,6
78990424,1,0,6
79007072,4,0,6
79023696,9,0,6
79040336,0,4,6
79056972,841,4,6
79075692,1296,81,6
79096492,36,16,6
79115212,1,4,6
79131868,1,25,6
79149544,529,1,6
79168256,36,100,6
79188024,0,0,6
79204668,49,1,6
79222340,16,16,6
79241048,784,1,6
79259784,841,36,6
79279544,36,4,6
79297220,484,36,6
79316968,64,9,6
79334660,289,25,6
79354408,81,4,6
79372096,484,4,6
79390832,361,1,6
79409536,1024,121,6
79431372,1936,169,6
79453220,361,25,6
79472988,144,4,6
79491704,900,144,6
79512492,841,100,6
79533308,529,1,6
79552020,169,49,6
79571772,289,100,6
79592580,961,81,6
79612340,256,49,6
79632100,25,4,6
79649764,25,36,6
79668504,361,1,6
79687216,961,49,6
79706976,1089,25,6
79727788,9,4,6
79744412,49,1,6
79762096,676,16,6
79781848,961,16,6
79801620,4900,36,6
79822416,2304,256,6
79844240,1521,49,6
79865060,2916,36,6
79885860,144,64,6
79905616,49,64,6
79924328,81,4,6
79942016,1156,36,6
79962812,1444,256,6
79984660,961,64,6
80004428,400,4,6
80023132,9,36,6
80040820,576,0,6
80059536,256,121,4
80080336,4,9,4
80096976,16,0,4
80114648,484,64,4
80134432,1369,100,4
80156252,2500,49,4
80177056,3249,100,4
80198904,961,225,4
80219692,625,16,4
80239456,324,36,4
80259224,25,25,4
80277936,225,25,4
80297696,484,9,4
80316412,196,64,4
80336188,1,0,4
80352820,64,16,4
80371532,400,1,4
80390264,4489,81,4
80411052,3249,144,4
80432888,841,121,4
80453684,1089,121,4
80475532,7225,289,4
80497368,7396,441,4
80519216,900,256,4
80540008,1156,64,4
80560812,169,100,4
80581608,3600,9,4
80601364,5929,324,4
80623204,1936,64,4
80644008,441,4,4
80662732,2601,16,4
80683544,961,225,4
80704332,900,121,4
80725140,441,36,4
80744892,16,1,4
80762572,121,9,4
80781280,2116,196,4
80803136,1444,289,4
80824968,900,9,4
80843684,7056,196,4
80865536,961,196,4
80886340,1024,1,4
80906104,25,9,4
80923780,1089,25,4
80944560,6889,81,4
80965368,12544,484,4
80988256,361,576,4
81009068,2500,16,4
81029856,676,100,4
81050660,64,4,4
81068340,1,81,4
81086004,1600,0,4
81105776,6241,576,4
81127616,4900,576,4
81149444,256,25,4
81169192,11881,64,4
81191056,19044,784,4
81213932,1369,900,4
81235780,4,16,4
81253468,100,0,4
81272192,324,1,4
81290900,324,49,4
81310648,1444,64,4
81331460,484,4,4
81350188,169,4,4
81368888,100,0,4
81387616,1089,49,4
81408424,121,0,4
81427128,0,196,4
81445852,196,144,4
81466660,441,25,4
81486408,900,169,4
81507212,1764,225,4
81529060,289,36,4
81548828,484,144,4
81569596,5041,100,4
81591460,3600,625,4
81613300,225,16,4
81633060,729,25,4
81652816,1,16,4
81670496,9,529,4
81689212,169,36,4
81708964,4,1024,4
81728748,36,0,4
81746412,36,100,4
81766172,1,9,4
81782816,225,16,4
81802588,121,0,4
81821296,49,9,4
81838984,9,0,4
81855620,169,4,4
81874336,4,225,4
81893052,9,784,4
81911776,25,81,4
81930500,0,100,4
81949228,0,16,4
81966904,16,256,4
81986660,0,484,4
82005372,49,1089,4
82026164,4,3721,4
82045932,144,361,4
82066744,256,0,4
82085460,0,16,4
82103132,25,400,4
82122912,36,676,4
82142656,144,169,4
82163460,9,196,4
82182192,100,841,4
82202984,121,289,4
82223784,25,4,4
82241456,4,36,4
82259152,1,36,4
82276824,324,625,4
82297620,729,1369,4
82319464,361,400,4
82340256,4,36,4
82357924,100,1089,4
82379768,225,841,4
82400580,144,25,4
82420324,100,2025,4
82442160,576,3249,4
82464016,256,144,4
82484824,4,121,4
82503528,64,729,4
82523300,81,676,4
82543048,225,1089,4
82564896,49,49,4
82583624,81,1849,4
82604420,1,1444,4
82624184,361,361,4
82644968,256,484,4
82665784,49,64,4
82684496,100,1,4
82703224,196,196,4
82724028,36,25,4
82742732,1,49,4
82760428,0,1,4
82777052,25,676,4
82796816,49,2025,4
82817612,100,361,4
82838420,144,64,4
82858192,16,169,4
82877940,64,100,4
82897704,81,1,4
82915384,36,400,4
82935152,196,961,4
82955932,64,576,4
82975696,36,1,4
82993376,121,100,4
83014180,25,4,4
83031856,49,2116,4
83052668,361,729,4
83073460,441,4,4
83092184,9,25,4
83109856,4,36,4
83127540,9,225,4
83146268,0,576,4
83164980,16,289,4
83184744,81,256,4
83204512,9,25,4
83222176,4,36,4
83239852,9,36,4
83257548,25,625,4
83277292,81,484,4
83297052,16,0,4
83314744,9,225,4
83333472,4,0,4
83350104,25,49,4
83368812,81,144,4
83388588,0,289,4
83407300,100,484,4
83428096,81,676,4
83447856,100,676,4
83468672,196,841,4
83489456,64,289,4
83509220,25,121,4
83528980,25,16,4
83547696,0,169,4
83566420,9,64,4
83584108,0,361,4
83602820,4,225,4
83621536,0,49,4
83639224,64,225,4
83658976,64,100,4
83678748,25,9,4
83696408,25,64,4
83715144,4,36,4
83732832,49,4,4
83750492,16,9,4
83768176,4,100,4
83786896,25,256,4
83806664,64,25,4
83825376,16,16,4
83844108,100,361,4
83864900,256,625,4
83885692,64,49,4
83904404,9,1936,4
83924168,324,900,4
83944980,100,100,4
83965780,9,81,4
83983460,9,16,4
84001136,0,36,4
84018816,25,289,4
84038576,49,121,4
84058356,1,1,4
84074980,1,49,4
84092660,4,121,4
84111388,16,36,4
84130096,49,1600,4
84150896,225,2209,4
84172724,324,484,4
84193540,25,0,4
84211224,0,81,4
84228900,1,9,4
84245548,9,324,4
84264252,0,961,4
84282972,100,484,4
84303772,100,36,4
84323548,9,256,4
84342260,36,256,4
84362024,1,4,4
84378664,16,4,4
84396336,0,144,4
84415064,9,1089,4
84434824,36,169,4
84454584,64,0,4
84472248,0,25,4
84489928,0,81,4
84507608,9,324,4
84526348,1,100,4
84545064,4,225,4
84563772,0,81,4
84581468,16,25,4
84600180,0,0,4
84616812,0,36,4
84634496,25,25,4
84653240,4,0,4
84669872,9,0,4
84686496,4,64,4
84704176,25,324,4
84723940,36,144,4
84743700,0,0,4
84760340,1,0,4
84776980,9,81,4
84794660,25,196,4
84814428,25,196,4
84834176,49,324,4
84853948,49,100,4
84873700,9,81,4
84891376,0,36,4
84909064,0,16,4
84926748,4,1,4
84943372,100,400,4
84964172,529,676,4
84984980,196,9,4
85003700,4,1,4
85020336,9,4,4
85036968,1,49,4
85054664,4,36,4
85072336,9,1,4
85088980,64,4,4
85106644,36,64,4
85125380,0,100,4
85144108,9,16,4
85161784,4,4,4
85178416,49,256,4
85198184,25,400,4
85217944,49,36,4
85236644,36,289,4
85256424,0,256,4
85275140,1,169,4
85293852,9,225,4
85312580,1,169,4
85331304,16,841,4
85351068,36,49,4
85369784,81,49,4
85388504,81,16,4
85407224,25,9,4
85424892,4,9,4
85441544,1,36,4
85459224,25,64,4
85477944,36,1,4
85495628,4,225,4
85514348,9,36,4
85532036,4,25,4
85549700,9,36,4
85567384,9,225,4
85586096,16,81,4
85604816,0,1,4
85621456,0,1,4
85638088,4,0,4
85654744,16,4,4
85672424,1,1,4
85689060,4,64,4
85706728,9,36,4
85724416,9,784,4
85743144,121,0,4
85761856,64,49,4
85780588,0,289,4
85799300,100,676,4
85820100,196,121,4
85840888,0,484,4
85859620,49,1681,4
85880416,4,196,4
85899148,1,121,4
85917872,1,36,4
85935536,0,400,4
85954248,36,81,4
85972972,36,9,4
85990680,1,1,4
86007308,16,1,4
86024980,9,100,4
86043708,1,25,4
86061392,9,4,4
86078024,4,25,4
86095700,0,0,4
86112340,9,169,4
86131072,0,256,4
86149780,9,36,4
86167456,16,81,4
86186188,1,256,4
86204896,9,100,4
86223612,9,9,4
86240252,16,100,4
86260012,144,81,4
86279768,64,81,4
86298500,9,144,4
86317224,64,324,4
86336972,196,576,4
86357788,100,529,4
86378584,49,256,4
86398340,169,81,4
86418096,289,49,4
86437856,49,1,4
86455540,4,49,4
86473220,0,36,4
86490896,0,169,4
86509624,1,25,4
86527300,0,1,4
86543936,9,729,4
86562668,1,64,4
86580344,0,16,4
86598016,49,324,4
86617776,64,100,4
86637524,1,144,4
86656260,4,9,4
86672900,0,4,4
86689540,64,9,4
86707224,1,16,4
86724904,1,49,4
86742584,16,9,4
86760252,0,4,4
86776900,9,4,4
86793540,1,4,4
86810180,1,1,4
86826812,1,0,4
86843472,1,36,4
86861140,9,256,4
86879852,1,144,4
86898580,1,1,4
86915240,9,1,4
86931876,1,16,4
86949528,25,100,4
86969296,4,961,4
86988016,0,676,4
87006752,0,144,4
87025460,0,0,4
87042108,4,49,4
87059780,4,256,4
87078488,4,16,4
87096180,9,225,4
87114912,0,25,4
87132588,1,1,4
87149224,9,16,4
87166892,25,169,4
87186660,25,16,4
87205372,9,4,4
87222024,0,1,4
87238672,0,36,4
87256340,4,4,4
87272988,1,16,4
87290660,4,49,4
87308344,9,1,4
87324980,4,0,4
87341624,9,36,4
87359296,25,784,4
87379068,225,2401,4
87400888,676,1849,4
87422744,784,1225,4
87444584,529,625,4
87465384,169,25,4
87485132,16,121,4
87504896,0,169,4
87523628,1,0,4
87540272,1,16,4
87557944,81,256,4
87577700,49,196,4
87597464,1,9,4
87614104,9,64,4
87631768,256,169,4
87652580,169,169,4
87673380,25,64,4
87692104,4,64,4
87709792,0,49,4
87727460,0,0,4
87744088,9,25,4
87761780,81,484,4
87781540,121,169,4
87802348,36,1,4
87820024,4,0,4
87836664,0,36,4
87854340,4,169,4
87873076,25,16,4
87891776,16,9,4
87909472,36,225,4
87929220,100,289,4
87950016,9,9,4
87966656,4,4,4
87983304,4,225,4
88002024,4,25,4
88019708,16,9,4
88037364,0,100,4
88056100,9,1,4
88072748,4,16,4
88090416,1,729,4
88109144,121,400,4
88129944,100,4,4
88148660,4,121,4
88167384,49,100,4
88187152,9,1,4
88203780,4,1,4
88220416,16,121,4
88240176,4,0,4
88256828,1,324,4
88275536,4,4,4
88292180,1,16,4
88309868,4,900,4
88328572,81,841,4
88348356,100,676,4
88369136,4,225,4
88387860,100,1,4
88406564,196,81,4
88426340,9,64,4
88444024,9,36,4
88461704,0,4,4
88478332,16,49,4
88497052,4,16,4
88514740,25,25,4
88533472,1,225,4
88552172,0,196,4
88570904,1,16,4
88588584,0,169,4
88607312,36,324,4
88627056,64,49,4
88645780,0,576,4
88664496,81,144,4
88684260,100,121,4
88705056,576,676,4
88725856,100,169,4
88746656,16,49,4
88765368,36,841,4
88785136,64,1089,4
88805932,100,64,4
88825700,16,25,4
88844416,36,121,4
88864172,36,64,4
88882904,16,144,4
88902648,16,16,4
88921380,36,0,4
88939048,100,100,4
88959856,16,121,4
88979632,16,121,4
88999384,169,400,4
89020172,441,729,4
89040972,49,676,4
89060732,64,4096,4
89081544,324,225,4
89102344,144,169,4
89123156,4,36,4
89140820,9,4,4
89157464,1,36,4
89175140,16,0,4
89192820,49,64,4
89211544,100,100,4
89232344,4,36,4
89250028,25,25,4
89268732,0,36,4
89286412,0,36,4
89304108,0,1,4
89320744,100,0,4
89339452,256,196,4
89360264,49,289,4
89380024,1,81,4
89397688,16,4,4
89415380,0,81,4
89433056,9,1,4
89449700,0,64,4
89467384,4,64,4
89485064,9,25,4
89502736,100,100,4
89523540,25,81,4
89542256,16,25,4
89560980,9,121,4
89579700,0,49,4
89597380,49,484,4
89617128,144,64,4
89636908,49,121,4
89656664,4,784,4
89675384,0,324,4
89694096,36,9,4
89711776,16,49,4
89730504,4,1,4
89747140,0,0,4
89763776,1,25,4
89781464,4,36,4
89799132,4,4,4
89815776,0,1,4
89832404,1,0,4
89849060,9,4,4
89865700,1,1,4
89882332,0,1,4
89898976,1,16,4
89916672,1,36,4
89934340,1,100,4
89953060,25,121,4
89972820,25,4,4
89990504,0,36,4
90008188,4,49,4
90025868,1,16,4
90043540,0,9,4
90060192,1,9,2
90076824,4,36,2
90094488,4,81,2
90112188,4,441,2
90130900,4,225,2
90149612,9,49,2
90167296,1,0,2
90183944,4,16,2
90201628,0,4,2
90218260,0,1,2
90234908,4,1,2
90251540,1,4,2
90268176,49,400,2
90287936,121,900,2
90308728,100,225,2
90329528,49,0,2
90347224,0,4,2
90363856,0,1,2
90380504,1,0,2
90397132,0,0,2
90413776,0,4,2
90430416,1,0,2
90447056,0,1,2
90463692,1,1,2
90480332,0,9,2
90496976,0,0,2
90513620,0,0,2
90530248,36,0,2
90547928,16,4,2
90565604,0,64,2
90583308,4,81,2
90600980,81,9,2
90618656,169,4,2
90637392,49,1,2
90655064,16,0,2
90672732,9,4,2
90689380,49,1,2
90707072,49,49,2
90725780,0,81,2
90743464,0,9,2
90760092,0,0,2
90776740,4,0,2
90793380,16,1,2
90811060,16,1,2
90828732,1,4,2
90845388,1,1,2
90862008,36,1,2
90879704,9,0,2
90896340,1,0,2
90912984,100,1,2
90931696,25,25,2
90950428,4,1,2
90967056,4,0,2
90983704,9,4,2
91000340,0,0,2
91016972,9,1,2
91033616,9,0,2
91050260,1,4,2
91066912,1,4,2
91083536,25,1,2
91101228,36,1,2
91118904,16,4,2
91136588,49,1,2
91154260,16,4,2
91171948,49,0,2
91189624,64,9,2
91207288,4,0,2
91223944,0,1,2
91240580,1,0,2
91257232,25,0,2
91274888,16,0,2
91292572,0,1,2
91309220,1,0,2
91325860,0,0,2
91342496,0,0,2
91359132,4,1,2
91375776,0,0,2
91392420,9,1,2
91409060,1,1,2
91425692,9,0,2
91442340,4,1,2
91458984,1,1,2
91475612,25,0,2
91493284,36,0,2
91510980,9,1,2
91527624,25,1,2
91545300,9,4,2
91561932,4,4,2
91578576,4,0,2
91595212,0,0,2
91611856,9,0,2
91628488,121,1,2
91647220,49,4,2
91664904,9,1,2
91681540,25,1,2
91699224,1,1,2
91715864,0,4,2
91732512,4,0,2
91749132,16,0,2
91766816,1,0,2
91783460,9,1,2
91800100,81,4,2
91817780,121,4,2
91836520,1,9,2
91853140,36,1,2
91870812,9,0,2
91887452,4,0,2
91904100,4,4,2
91920740,9,4,2
91937372,9,0,2
91954024,16,0,2
91971700,64,0,2
91989376,0,0,2
92006032,1,9,2
92022660,36,0,2
92040340,16,25,2
92059052,0,1,2
92075700,16,1,2
92093380,36,1,2
92111064,0,9,2
92127704,1,1,2
92144332,9,1,2
92160976,9,1,2
92177620,4,0,2
92194256,1,0,2
92210892,36,4,2
92228572,49,16,2
92247308,0,16,2
92264988,16,4,2
92282660,0,1,2
92299300,0,1,2
92315948,9,0,2
92332584,81,0,2
92350264,64,4,2
92367940,121,0,2
92386672,49,4,2
92404340,4,1,2
92420964,36,0,2
92438668,36,0,2
92456348,1,0,2
92472976,36,1,2
92490652,0,1,2
92507296,4,0,2
92523944,1,0,2
92540572,16,0,2
92558256,9,1,2
92574904,1,1,2
92591536,9,1,2
92608180,1,0,2
92624816,1,1,2
92641460,4,0,2
92658100,9,0,2
92674740,1,0,2
92691368,36,0,2
92709064,81,1,2
92726732,16,4,2
92744412,1,0,2
92761040,0,0,2
92777708,4,0,2
92794336,49,0,2
92812024,4,9,2
92828648,0,9,2
92845300,0,9,2
92861944,4,9,2
92878584,9,0,2
92895220,9,1,2
92911860,0,0,2
92928492,1,1,2
92945136,9,0,2
92961764,16,1,2
92979468,36,1,2
92997148,49,0,2
93014824,36,0,2
93032504,64,4,2
93050180,0,0,2
93066812,1,1,2
93083460,36,0,2
93101148,36,4,2
93118820,64,9,2
93136508,49,0,2
93154184,4,1,2
93170820,16,1,2
93188500,9,0,2
93205144,36,0,2
93222816,4,0,2
93239472,0,16,2
93257136,25,25,2
93275852,81,0,2
93293532,49,16,2
93312264,0,1,2
93328904,1,0,2
93345532,49,0,2
93363220,0,1,2
93379860,25,0,2
93397552,9,1,2
93414180,36,4,2
93431864,49,9,2
93449536,25,0,2
93467212,0,4,2
93483852,16,9,2
93501548,4,25,2
93519236,1,1,2
93535860,1,0,2
93552492,4,1,2
93569144,1,0,2
93585788,9,16,2
93603452,25,1,2
93621144,16,1,2
93638828,9,9,2
93655460,9,9,2
93672100,1,9,2
93688728,9,0,2
93705380,9,1,2
93722024,0,0,2
93738660,64,0,2
93756328,64,4,2
93774032,1,1,2
93790652,100,1,2
93809372,64,4,2
93827052,9,1,2
93843700,1,1,2
93860340,4,0,2
93876980,9,1,2
93893612,36,0,2
93911300,25,0,2
93928980,25,1,2
93946660,49,9,2
93964336,25,4,2
93982016,4,0,2
93998668,16,0,2
94016336,289,4,2
94035060,64,9,2
94052744,1,0,2
94069380,16,4,2
94087060,1,9,2
94103704,1,0,2
94120348,1,4,2
94136984,0,1,2
94153624,0,1,2
94170264,0,1,2
94186900,9,0,2
94203532,4,0,2
94220176,25,1,2
94237872,36,4,2
94255540,1,1,2
94272172,0,1,2
94288804,36,0,2
94306504,100,4,2
94325216,25,9,2
94342900,9,0,2
94359532,1,1,2
94376180,0,0,2
94392824,1,1,2
94409456,25,1,2
94427128,121,4,2
94445864,100,9,2
94464572,81,4,2
94482252,64,4,2
94499940,16,0,2
94517628,16,1,2
94535296,169,4,2
94554016,64,9,2
94571700,4,0,2
94588340,9,0,2
94604976,0,0,2
94621608,4,1,2
94638260,16,4,2
94655940,16,4,2
94673612,0,0,2
94690252,9,0,2
94706900,121,1,2
94725604,324,16,2
94745380,9,9,2
94762024,64,9,2
94779704,4,0,2
94796332,81,16,2
94815052,16,1,2
94832740,4,0,2
94849384,1,0,2
94866020,0,0,2
94882660,16,0,2
94900340,25,0,2
94918016,49,0,2
94935700,64,1,2
94953372,9,1,2
94970024,0,1,2
94986660,16,1,2
95004336,64,1,2
95022008,289,0,2
95040744,16,4,2
95058416,0,1,2
95075060,1,4,2
95091684,0,1,2
95108348,36,0,2
95126016,0,1,2
95142660,100,1,2
95161392,64,9,2
95179060,1,0,2
95195700,81,1,2
95213376,36,4,2
95231060,1,1,2
95247704,49,4,2
95265380,36,16,2
95284100,0,1,2
95300752,9,0,2
95317380,81,0,2
95335056,81,4,2
95352732,49,0,2
95370416,1,0,2
95387056,49,0,2
95404744,169,4,2
95423448,100,9,2
95442192,1,0,2
95458816,4,0,2
95475456,0,1,2
95492088,0,0,2
95508752,1,1,2
95525384,16,1,2
95543052,81,9,2
95560740,36,4,2
95578424,16,1,2
95596104,16,16,2
95614808,0,9,2
95631468,49,1,2
95649148,49,1,2
95666820,16,0,2
95684492,25,0,2
95702176,9,4,2
95718820,25,9,2
95736500,9,1,2
95753128,1,0,2
95769772,1,0,2
95786412,16,0,2
95804100,36,1,2
95821768,25,4,2
95839460,16,1,2
95857136,0,1,2
95873772,16,1,2
95891464,16,1,2
95909140,9,0,2
95925788,81,4,2
95943456,9,4,2
95960112,9,1,2
95976744,9,9,2
95993392,4,16,2
96011052,36,16,2
96029784,9,0,2
96046424,4,4,2
96063056,0,1,2
96079696,4,0,2
96096344,9,1,2
96112980,64,4,2
96130660,256,9,2
96149380,225,4,2
96168112,64,4,2
96185784,0,9,2
96202424,0,0,2
96219060,16,4,2
96236756,1,1,2
96253384,9,1,2
96270012,0,1,2
96286656,1,4,2
96303296,0,0,2
96319936,1,0,2
96336580,4,4,2
96353208,0,4,2
96369860,36,0,2
96387544,16,4,2
96405220,9,4,2
96421848,64,9,2
96439544,49,9,2
96457224,1,1,2
96473852,49,4,2
96491540,64,4,2
96509220,4,4,2
96525872,16,1,2
96543540,1,9,2
96560176,1,1,2
96576820,1,0,2
96593460,4,1,2
96610096,9,0,2
96626744,4,4,2
96643384,16,0,2
96661056,25,4,2
96678744,9,4,2
96695392,1,0,2
96712032,4,1,2
96728656,16,0,2
96746332,1,0,2
96762980,4,0,2
96779620,4,0,2
96796260,1,1,2
96812892,0,1,2
96829540,9,1,2
96846176,4,0,2
96862816,0,0,2
96879452,36,0,2
96897144,49,1,2
96914824,1,4,2
96931464,1,0,2
96948100,9,4,2
96964740,64,9,2
96982416,36,4,2
97000096,1,0,2
97016732,16,16,2
97035468,81,9,2
97053140,169,4,2
97071852,16,4,2
97089528,25,0,2
97107220,49,0,2
97124912,1,0,2
97141536,9,0,2
97158184,16,4,2
97175860,4,9,2
97192492,0,4,2
97209132,49,0,2
97226824,25,1,2
97244508,81,4,2
97262176,196,16,2
97281932,49,16,2
97300664,1,1,2
97317292,1,0,2
97333948,9,1,2
97350580,0,0,2
97367232,1,0,2
97383864,1,0,2
97400500,9,0,2
97417136,81,0,2
97434824,25,0,2
97452492,36,0,2
97470184,64,4,2
97487860,16,1,2
97505544,0,4,2
97522180,36,4,2
97539860,49,1,2
97557540,81,0,2
97575220,484,25,2
97594972,225,36,2
97614744,16,1,2
97632420,0,1,2
97649056,4,0,2
97665692,9,0,2
97682336,81,0,2
97700020,256,4,2
97718732,100,9,2
97737464,1,1,2
97754088,16,1,2
97771788,169,0,2
97790512,49,1,2
97808184,25,1,2
97825860,36,0,2
97843540,9,1,2
97860172,0,0,2
97876812,9,1,2
97893468,0,0,2
97910104,64,4,2
97927768,25,1,2
97945452,9,1,2
97962100,49,4,2
97979784,64,4,2
97997456,49,9,2
98015136,16,1,2
98032832,1,4,2
98049452,16,1,2
98067144,1,4,2
98083776,1,1,2
98100428,4,0,2
98117056,36,1,2
98134740,1,1,2
98151364,16,0,2
98169068,4,0,2
98185688,9,0,2
98202340,0,0,2
98218968,100,1,2
98237704,169,16,2
98257456,49,16,2
98276180,4,1,2
98292820,36,4,2
98310504,100,4,2
98329216,36,0,2
98346900,9,1,2
98363540,36,1,2
98381220,4,0,2
98397852,4,0,2
98414500,64,1,2
98432184,1,1,2
98448816,9,4,2
98465452,36,4,2
98483132,4,1,2
98499776,25,1,2
98517472,0,0,2
98534096,64,1,2
98551764,64,9,2
98569464,1,1,2
98586096,81,0,2
98603772,36,1,2
98621468,1,1,2
98638100,0,1,2
98654748,9,1,2
98671368,4,9,2
98688024,1,4,2
98704672,1,1,2
98721312,36,0,2
98738980,25,1,2
98756656,4,0,2
98773296,36,4,2
98790976,81,4,2
98808672,9,0,2
98825304,25,4,2
98842984,25,4,2
98860664,1,0,2
98877304,1,0,2
98893944,64,9,2
98911620,121,9,2
98930336,25,4,2
98948012,9,0,2
98964664,1,0,2
98981288,0,0,2
98997932,4,1,2
99014568,1,0,2
99031224,1,4,2
99047852,9,9,2
99064512,1,0,2
99081140,9,1,2
99097792,4,0,2
99114416,16,1,2
99132096,121,4,2
99150820,9,1,2
99167464,25,0,2
99185144,144,0,2
99203864,64,4,2
99221548,36,0,2
99239224,144,9,2
99257928,36,0,2
99275624,4,1,2
99292260,16,1,2
99309940,36,0,2
99327612,81,1,2
99345304,64,1,2
99362980,4,4,2
99379616,4,0,2
99396252,25,0,2
99413924,289,9,2
99432660,16,1,2
99450340,36,9,2
99468016,0,0,2
99484652,1,1,2
99501300,1,4,2
99517936,9,0,2
99534584,81,1,2
99552252,64,9,2
99569948,9,1,2
99586576,0,0,2
99603216,9,0,2
99619872,64,1,2
99637536,64,0,2
99655212,16,0,2
99672904,4,1,2
99689540,49,0,2
99707220,4,0,2
99723864,1,4,2
99740492,49,0,2
99758188,225,4,2
99776900,169,16,2
99796664,1,4,2
99813292,25,0,2
99830988,1,0,2
99847620,9,0,2
99864252,4,9,2
99880888,36,4,2
99898580,81,0,2
99916260,0,0,2
99932896,16,0,2
99950572,4,0,2
99967224,16,1,2
99984892,1,0,2
100001540,0,0,2
100019228,4,1,2
100036912,9,0,2
100054576,121,1,7
100074336,36,9,7
100093072,4,4,7
100110740,16,4,7
100129456,4,4,7
100147128,0,1,7
100164820,0,4,7
100182504,1,1,7
100200180,1,0,7
100217848,9,1,7
100235540,16,0,7
100254260,1,0,7
100271944,36,1,7
100290660,9,1,7
100308336,25,0,7
100327056,100,1,7
100346816,1,1,7
100364504,100,0,7
100384256,100,1,7
100404016,81,1,7
100422748,196,9,7
100442500,121,4,7
100462256,25,0,7
100480972,4,1,7
100498656,9,0,7
100516336,0,1,7
100534020,25,1,7
100552744,4,9,7
100570424,16,0,7
100589132,25,0,7
100607852,9,0,7
100625544,0,1,7
100643232,0,4,7
100660900,16,16,7
100680652,64,4,7
100699388,9,25,7
100718104,36,1,7
100736816,121,16,7
100757628,64,1,7
100776344,36,9,7
100795060,121,25,7
100815856,169,36,7
100836660,169,400,7
100858488,324,196,7
100880336,225,961,7
100902184,16,529,7
100922980,9,25,7
100941700,0,0,7
100959384,9,0,7
100977060,16,9,7
100995772,4,1,7
101013456,0,16,7
101032184,4,1,7
101049856,0,4,7
101067540,4,9,7
101085224,0,0,7
101102908,1,16,7
101121616,1,0,7
101139292,1,0,7
101156980,1,4,7
101174668,4,0,7
101192340,0,0,7
101210016,0,4,7
101227700,0,1,7
101245372,0,1,7
101263056,0,4,7
101280728,9,0,7
101298424,100,0,7
101318180,36,4,7
101336892,0,9,7
101354584,0,4,7
101372264,0,1,7
101389932,0,0,7
101407612,0,0,7
101425300,0,0,7
101442980,0,1,7
101460664,0,1,7
101478336,0,0,7
101496020,0,0,7
101513700,1,1,7
101531384,1,1,7
101549044,0,0,7
101566736,0,0,7
101584416,0,0,7
101602088,0,0,7
101619780,0,0,7
101637460,0,0,7
101655132,0,0,7
101672820,0,0,7
101690500,0,0,7
101708180,0,0,7
101725852,1,0,7
101743520,1,0,7
101761216,0,0,7
101778888,0,0,7
101796572,0,0,7
101814248,0,0,7
101831944,0,1,7
101849620,0,1,7
101867288,0,0,7
101884980,0,0,7
101902656,1,0,7
101920328,0,0,7
101938008,0,0,7
101955700,0,0,7
101973384,0,1,7
101991060,0,0,7
102008728,1,0,7
102026416,0,0,7
102044092,0,0,7
102061772,0,0,7
102079444,0,0,7
102097140,0,0,7
102114808,1,0,7
102132496,0,0,7
102150180,0,0,7
102167856,0,0,7
102185536,0,1,7
102203208,0,0,7
102220896,0,0,7
102238576,0,0,7
102256248,0,0,7
102273936,1,0,7
102291620,0,4,7
102309300,1,1,7
102326972,1,0,7
102344656,1,0,7
102362336,1,0,7
102380024,9,0,7
102397692,4,1,7
102415384,4,1,7
102433060,1,0,7
102450740,1,0,7
102468420,1,0,7
102486096,1,0,7
102503788,4,0,7
102521448,0,0,7
102539132,1,0,7
102556820,1,0,7
102574504,4,0,7
102592180,0,0,7
102609856,1,0,7
102627540,0,0,7
102645224,1,0,7
102662892,0,0,7
102680564,1,0,7
102698260,4,1,7
102715940,25,0,7
102734652,9,0,7
102752340,4,1,7
102770020,1,1,7
102787700,0,0,7
102805372,0,0,7
102823060,0,0,7
102840740,0,1,7
102858408,0,0,7
102876088,0,0,7
102893780,0,0,7
102911460,1,0,7
102929136,0,4,7
102946824,0,1,7
102964500,0,0,7
102982176,0,0,7
102999848,0,0,7
103017540,0,0,7
103035220,0,0,7
103052896,0,1,7
103070580,0,0,7
103088260,0,1,7
103105936,0,0,7
103123612,1,0,7
103141288,1,0,7
103158980,1,1,7
103176660,0,1,7
103194340,0,0,7
103212004,1,0,7
103229696,1,0,7
103247388,9,0,7
103265060,4,0,7
103282740,0,0,7
103300420,1,1,7
103318092,0,0,7
103335768,0,0,7
103353460,0,0,7
103371140,0,0,7
103388816,0,1,7
103406492,0,0,7
103424176,0,0,7
103441856,0,1,7
103459540,1,0,7
103477204,0,0,7
103494900,0,0,7
103512580,1,0,7
103530252,0,0,7
103547940,0,0,7
103565620,0,0,7
103583288,0,0,7
103600968,0,0,7
103618660,0,0,7
103636336,0,0,7
103654012,0,1,7
103671692,0,1,7
103689376,0,0,7
103707060,0,1,7
103724740,0,0,7
103742404,0,0,7
103760096,1,0,7
103777768,0,0,7
103795452,1,0,7
103813140,0,0,7
103830828,1,0,7
103848504,1,0,7
103866180,0,0,7
103883860,0,1,7
103901540,0,0,7
103919212,0,0,7
103936892,0,1,7
103954576,0,0,7
103972256,0,0,7
103989928,0,0,7
104007604,0,0,7
104025300,0,0,7
104042984,0,1,7
104060652,0,0,7
104078324,0,0,7
104096020,1,1,7
104113700,0,0,7
104131372,0,1,7
104149060,1,1,7
104166736,0,0,7
104184412,1,0,7
104202100,1,0,7
104219780,0,0,7
104237456,0,0,7
104255132,0,0,7
104272804,0,0,7
104290500,0,1,7
104308180,0,0,7
104325856,0,0,7
104343528,1,0,7
104361220,0,0,7
104378900,0,0,7
104396572,0,1,7
104414260,0,0,7
104431952,0,4,7
104449620,0,0,7
104467300,0,0,7
104484988,0,0,7
104502660,0,0,7
104520332,0,0,7
104538012,1,0,7
104555696,0,0,7
104573368,0,0,7
104591048,0,0,7
104608728,0,0,7
104626420,1,0,7
104644096,0,4,7
104661772,0,1,7
104679456,1,0,7
104697140,4,0,7
104714812,1,0,7
104732492,0,1,7
104750180,0,0,7
104767856,1,0,7
104785540,0,0,7
104803224,0,0,7
104820904,0,0,7
104838572,0,0,7
104856248,0,0,7
104873928,0,1,7
104891620,0,1,7
104909300,0,0,7
104926968,0,0,7
104944660,0,0,7
104962340,0,0,7
104980008,0,1,7
104997692,0,1,7
105015376,0,0,7
105033056,0,0,7
105050728,0,0,7
105068412,0,0,7
105086100,0,0,7
105103780,0,0,7
105121464,0,0,7
105139136,0,0,7
105156812,0,0,7
105174492,0,0,7
105192168,0,0,7
105209840,0,0,7
105227540,0,0,7
105245220,0,0,7
105262896,0,1,7
105280580,0,4,7
105298260,0,0,7
105315932,0,0,7
105333612,0,0,7
105351296,0,0,7
105368980,0,1,7
105386648,0,0,7
105404324,0,0,7
105422020,0,0,7
105439704,0,1,7
105457372,0,0,7
105475048,0,0,7
105492740,0,0,7
105510420,0,0,7
105528092,0,1,7
105545784,0,0,7
105563464,0,0,7
105581132,0,0,7
105598816,1,0,7
105616496,1,0,7
105634180,1,1,7
105651852,1,1,7
105669528,0,0,7
105687216,0,0,7
105704892,0,0,7
105722568,0,0,7
105740256,0,1,7
105757940,0,1,7
105775608,0,0,7
105793288,0,0,7
105810980,1,0,7
105828656,0,0,7
105846336,0,1,7
105864020,1,0,7
105881704,0,0,7
105899384,0,1,7
105917060,0,0,7
105934732,0,0,7
105952420,0,0,7
105970088,0,0,7
105987772,0,0,7
106005448,0,0,7
106023140,0,0,7
106040808,0,0,7
106058492,0,0,7
106076180,0,1,7
106093860,0,0,7
106111532,0,0,7
106129212,0,0,7
106146896,0,0,7
106164580,0,0,7
106182256,0,0,7
106199932,0,0,7
106217616,0,0,7
106235300,0,0,7
106252968,0,0,7
106270644,0,0,7
106288328,0,0,7
106306012,0,0,7
106323692,0,0,7
106341384,0,0,7
106359068,0,0,7
106376748,1,0,7
106394412,0,0,7
106412096,0,0,7
106429776,1,0,7
106447452,0,0,7
106465128,0,0,7
106482816,0,0,7
106500500,0,0,7
106518180,1,0,7
106535844,0,1,7
106553540,0,0,7
106571212,0,0,7
106588892,1,0,7
106606564,0,0,7
106624260,0,0,7
106641940,0,0,7
106659620,1,0,7
106677304,0,0,7
106694980,0,0,7
106712648,0,0,7
106730332,0,0,7
106748016,0,0,7
106765696,0,0,7
106783368,0,0,7
106801056,0,1,7
106818736,0,0,7
106836416,0,1,7
106854100,0,0,7
106871768,0,0,7
106889456,0,0,7
106907128,0,0,7
106924808,0,0,7
106942500,0,0,7
106960180,0,0,7
106977852,0,0,7
106995544,0,0,7
107013228,1,0,7
107030896,0,0,7
107048572,0,0,7
107066248,0,0,7
107083940,0,1,7
107101612,0,0,7
107119300,0,0,7
107136964,0,0,7
107154660,0,0,7
107172328,0,0,7
107190008,0,0,7
107207696,0,0,7
107225380,0,0,7
107243048,0,0,7
107260736,0,1,7
107278428,0,0,7
107296104,0,1,7
107313780,0,0,7
107331448,0,0,7
107349140,0,0,7
107366812,0,0,7
107384492,0,1,7
107402168,0,4,7
107419872,0,1,7
107437536,0,0,7
107455216,0,1,7
107472888,0,0,7
107490580,0,0,7
107508256,1,0,7
107525928,0,0,7
107543616,0,0,7
107561300,0,1,7
107578972,0,0,7
107596648,0,0,7
107614344,0,1,7
107632020,0,0,7
107649692,0,0,7
107667364,0,0,7
107685056,0,0,7
107702728,0,0,7
107720408,0,0,7
107738084,0,0,7
107755780,0,0,7
107773460,0,0,7
107791132,0,0,7
107808824,0,0,7
107826496,0,0,7
107844176,0,1,7
107861848,0,0,7
107879536,0,0,7
107897220,0,0,7
107914892,0,0,7
107932568,0,0,7
107950260,0,0,7
107967932,0,0,7
107985616,0,0,7
108003284,1,4,7
108020984,0,4,7
108038664,0,0,7
108056328,0,0,7
108074020,0,0,7
108091712,1,0,7
108109372,0,0,7
108127048,0,0,7
108144736,1,0,7
108162416,0,0,7
108180092,0,0,7
108197772,0,0,7
108215460,1,0,7
108233140,0,0,7
108250820,0,0,7
108268484,0,0,7
108286180,0,0,7
108303848,0,0,7
108321540,1,1,7
108339216,0,0,7
108356912,0,0,7
108374572,0,0,7
108392252,0,1,7
108409940,0,0,7
108427620,0,0,7
108445296,0,1,7
108462968,1,0,7
108480648,0,0,7
108498340,0,1,7
108516016,0,0,7
108533700,0,0,7
108551388,0,0,7
108569052,1,0,7
108586732,0,0,7
108604404,0,0,7
108622096,0,0,7
108639776,0,0,7
108657452,0,1,7
108675132,0,1,7
108692816,0,0,7
108710496,0,1,7
108728172,0,0,7
108745860,0,1,7
108763536,0,0,7
108781208,0,0,7
108798884,0,0,7
108816576,0,0,7
108834256,0,1,7
108851932,0,0,7
108869604,0,0,7
108887300,0,1,7
108904980,0,0,7
108922652,0,0,7
108940336,0,0,7
108958016,0,0,7
108975688,0,0,7
108993372,4,0,7
109011060,1,0,7
109028736,0,0,7
109046416,0,1,7
109064088,0,0,7
109081776,0,0,7
109099452,0,0,7
109117132,0,0,7
109134804,0,0,7
109152500,0,0,7
109170184,0,0,7
109187852,0,0,7
109205540,0,0,7
109223216,0,0,7
109240888,0,0,7
109258568,0,0,7
109276260,0,1,7
109293940,1,1,7
109311620,0,0,7
109329292,0,0,7
109346980,0,0,7
109364660,0,0,7
109382340,0,0,7
109400004,0,0,7
109417688,0,0,7
109435368,0,0,7
109453052,0,0,7
109470740,0,0,7
109488420,0,0,7
109506092,1,0,7
109523768,0,0,7
109541460,0,0,7
109559136,0,0,7
109576808,0,0,7
109594488,0,0,7
109612180,0,0,7
109629860,0,0,7
109647544,1,1,7
109665204,0,4,7
109682900,0,0,7
109700568,0,0,7
109718248,1,0,7
109735936,0,0,7
109753624,0,0,7
109771300,0,0,7
109788972,0,0,7
109806660,0,0,7
109824340,0,0,7
109842008,0,0,7
109859692,0,0,7
109877376,0,0,7
109895060,0,0,7
109912732,0,0,7
109930404,0,0,7
109948100,0,0,7
109965776,0,1,7
109983460,1,0,7
110001124,0,0,7
110018820,0,0,7
110036496,0,0,7
110054172,0,0,1
110071856,0,0,1
110089536,1,0,1
110107224,1,1,1
110124900,0,0,1
110142584,0,0,1
110160260,0,0,1
110177928,0,0,1
110195608,0,0,1
110213304,0,0,1
110230972,0,0,1
110248652,0,0,1
110266328,0,0,1
110284020,0,0,1
110301696,0,1,1
110319372,0,0,1
110337056,1,0,1
110354736,0,0,1
110372412,0,0,1
110390092,0,0,1
110407780,1,0,1
110425456,1,0,1
110443132,0,1,1
110460808,0,0,1
110478500,0,1,1
110496168,0,0,1
110513852,1,0,1
110531524,0,0,1
110549220,0,0,1
110566904,0,1,1
110584584,0,0,1
110602260,0,1,1
110619940,1,0,1
110637620,0,1,1
110655300,0,0,1
110672980,1,0,1
110690664,0,1,1
110708332,0,1,1
110726012,0,0,1
110743696,0,0,1
110761380,0,0,1
110779060,4,0,1
110796724,9,0,1
110814428,1,0,1
110832092,0,0,1
110849772,0,0,1
110867444,0,0,1
110885140,0,0,1
110902832,0,1,1
110920488,0,0,1
110938176,0,0,1
110955864,0,0,1
110973528,0,0,1
110991208,0,0,1
111008900,0,0,1
111026576,1,0,1
111044256,0,1,1
111061936,0,0,1
111079620,0,1,1
111097304,0,1,1
111114980,0,0,1
111132644,0,0,1
111150340,0,0,1
111168020,0,0,1
111185692,0,0,1
111203380,0,0,1
111221060,0,0,1
111238732,0,0,1
111256408,0,0,1
111274096,0,0,1
111291780,0,0,1
111309452,0,0,1
111327136,0,1,1
111344820,0,0,1
111362504,1,1,1
111380172,0,4,1
111397848,0,0,1
111415548,1,0,1
111433208,0,0,1
111450888,0,0,1
111468576,0,0,1
111486260,0,0,1
111503932,0,0,1
111521616,0,1,1
111539304,0,1,1
111556984,0,0,1
111574648,0,0,1
111592328,0,0,1
111610020,0,0,1
111627696,0,1,1
111645380,0,0,1
111663056,1,0,1
111680748,1,0,1
111698412,0,1,1
111716092,0,0,1
111733780,0,1,1
111751460,0,1,1
111769132,0,1,1
111786812,0,0,1
111804500,1,0,1
111822184,0,0,1
111839860,0,0,1
111857540,0,0,1
111875220,1,0,1
111892896,0,0,1
111910568,0,0,1
111928244,0,0,1
111945940,0,0,1
111963620,1,1,1
111981300,0,0,1
111998972,0,0,1
112016660,1,0,1
112034340,0,0,1
112052008,0,0,1
112069688,0,0,1
112087380,0,0,1
112105048,0,0,1
112122728,1,0,1
112140420,0,0,1
112158100,0,0,1
112175772,0,0,1
112193456,0,0,1
112211136,0,0,1
112228808,0,0,1
112246492,0,0,1
112264164,0,0,1
112281860,0,1,1
112299540,0,0,1
112317220,0,0,1
112334900,0,1,1
112352580,0,1,1
112370252,0,1,1
112387928,0,0,1
112405620,0,1,1
112423304,0,0,1
112440968,0,0,1
112458656,0,1,1
112476340,0,1,1
112494008,0,0,1
112511688,0,0,1
112529364,0,1,1
112547056,1,0,1
112564736,0,1,1
112582408,0,0,1
112600100,0,0,1
112617784,0,1,1
112635452,0,0,1
112653128,0,0,1
112670820,0,0,1
112688496,1,0,1
112706172,0,0,1
112723848,0,0,1
112741536,0,0,1
112759224,1,0,1
112776900,0,0,1
112794564,0,0,1
112812256,0,0,1
112829932,0,0,1
112847616,0,0,1
112865296,0,0,1
112882976,0,0,1
112900656,0,0,1
112918344,0,0,1
112936032,0,0,1
112953696,0,0,1
112971368,1,0,1
112989052,0,0,1
113006736,0,0,1
113024416,0,0,1
113042092,0,0,1
113059768,0,0,1
113077464,0,0,1
113095144,0,0,1
113112812,0,0,1
113130488,0,0,1
113148176,0,0,1
113165856,1,0,1
113183532,0,1,1
113201220,0,1,1
113218896,0,0,1
113236584,1,1,1
113254252,0,0,1
113271940,0,0,1
113289620,0,0,1
113307292,0,0,1
113324964,0,0,1
113342648,0,0,1
113360332,0,0,1
113378012,0,0,1
113395696,0,1,1
113413376,0,0,1
113431056,0,0,1
113448732,0,1,1
113466416,0,0,1
113484092,0,0,1
113501772,0,1,1
113519452,0,0,1
113537136,0,0,1
113554820,0,4,1
113572500,0,1,1
113590172,0,0,1
113607856,0,0,1
113625532,1,0,1
113643208,0,0,1
113660884,0,0,1
113678580,0,0,1
113696252,0,1,1
113713944,0,1,1
113731628,0,0,1
113749300,0,0,1
113766972,0,0,1
113784652,0,0,1
113802340,0,0,1
113820016,0,0,1
113837692,0,0,1
113855380,0,0,1
113873064,0,0,1
113890732,0,0,1
113908408,0,0,1
113926084,0,0,1
113943776,0,0,1
113961448,0,0,1
113979132,0,1,1
113996820,0,0,1
114014500,0,0,1
114032180,0,0,1
114049852,0,0,1
114067544,0,0,1
114085220,1,0,1
114102888,4,0,1
114120572,0,1,1
114138256,0,0,1
114155940,0,0,1
114173608,1,0,1
114191296,1,0,1
114208980,1,0,1
114226652,0,0,1
114244328,0,0,1
114262000,1,0,1
114279708,0,1,1
114297388,0,0,1
114315048,0,0,1
114332740,0,0,1
114350420,1,0,1
114368092,0,0,1
114385784,1,1,1
114403460,1,1,1
114421128,0,0,1
114438808,0,0,1
114456488,0,1,1
114474188,0,0,1
114491860,0,4,1
114509544,4,1,1
114527212,9,0,1
114544904,1,0,1
114562576,0,0,1
114580252,0,0,1
114597936,0,0,1
114615620,0,0,1
114633292,0,0,1
114650976,0,1,1
114668656,0,0,1
114686340,0,0,1
114704012,0,1,1
114721688,0,0,1
114739380,0,0,1
114757052,0,0,1
114774748,0,0,1
114792420,0,0,1
114810100,0,0,1
114827772,0,0,1
114845448,0,0,1
114863128,0,0,1
114880816,0,0,1
114898488,0,0,1
114916172,0,0,1
114933860,0,0,1
114951544,0,1,1
114969220,0,0,1
114986892,0,0,1
115004580,0,0,1
115022248,0,0,1
115039928,0,0,1
115057608,0,1,1
115075296,0,0,1
115092980,1,0,1
115110660,1,0,1
115128340,0,0,1
115146020,0,0,1
115163692,0,0,1
115181372,0,0,1
115199056,0,0,1
115216744,0,1,1
115234412,0,0,1
115252096,1,0,1
115269784,0,1,1
115287456,0,0,1
115305132,0,0,1
115322804,0,0,1
115340500,0,0,1
115358172,0,1,1
115375848,0,0,1
115393524,0,0,1
115411216,0,0,1
115428912,0,1,1
115446572,0,1,1
115464260,0,0,1
115481948,0,1,1
115499612,0,1,1
115517288,0,0,1
115534984,0,1,1
115552660,0,0,1
115570328,0,0,1
115588004,0,0,1
115605704,0,1,1
115623372,0,0,1
115641052,0,0,1
115658724,0,0,1
115676416,0,0,1
115694100,0,1,1
115711776,0,0,1
115729472,0,0,1
115747152,0,1,1
115764812,0,0,1
115782492,1,0,1
115800180,1,1,1
115817860,0,1,1
115835528,0,0,1
115853212,0,0,1
115870900,0,0,1
115888572,0,0,1
115906252,0,1,1
115923924,0,1,1
115941624,0,1,1
115959300,0,0,1
115976972,0,1,1
115994660,0,1,1
116012340,0,0,1
116030012,0,0,1
116047696,0,1,1
116065392,0,0,1
116083056,0,0,1
116100728,0,0,1
116118412,0,0,1
116136096,0,0,1
116153772,0,1,1
116171452,0,0,1
116189124,0,0,1
116206820,0,0,1
116224492,0,0,1
116242172,0,0,1
116259856,0,0,1
116277536,0,0,1
116295208,0,0,1
116312896,0,1,1
116330580,0,0,1
116348256,1,0,1
116365944,0,1,1
116383620,0,0,1
116401300,1,1,1
116418976,0,0,1
116436648,1,0,1
116454320,0,0,1
116472020,0,1,1
116489692,0,0,1
116507372,0,0,1
116525048,0,0,1
116542748,1,0,1
116560420,0,0,1
116578092,0,0,1
116595772,0,0,1
116613460,0,0,1
116631132,0,0,1
116648812,0,0,1
116666500,0,0,1
116684184,0,1,1
116701864,0,1,1
116719524,0,0,1
116737216,0,0,1
116754888,0,0,1
116772572,0,0,1
116790240,0,0,1
116807944,1,0,1
116825628,0,0,1
116843304,0,1,1
116860980,0,1,1
116878660,0,0,1
116896328,0,0,1
116914008,1,0,1
116931696,0,0,1
116949376,0,0,1
116967048,0,0,1
116984740,0,1,1
117002432,0,0,1
117020092,0,0,1
117037772,0,0,1
117055444,0,0,1
117073136,1,0,1
117090812,0,1,1
117108492,0,0,1
117126180,0,0,1
117143860,0,0,1
117161536,0,1,1
117179216,0,0,1
117196900,0,0,1
117214576,1,0,1
117232248,0,0,1
117249936,0,0,1
117267620,0,0,1
117285300,1,0,1
117302976,0,1,1
117320652,0,0,1
117338336,0,0,1
117356008,0,0,1
117373688,0,0,1
117391376,1,0,1
117409056,1,0,1
117426732,1,0,1
117444412,0,1,1
117462112,1,0,1
117479788,0,0,1
117497452,0,0,1
117515132,0,0,1
117532816,0,0,1
117550500,0,0,1
117568172,0,1,1
117585844,0,0,1
117603536,0,0,1
117621216,0,1,1
117638904,0,1,1
117656576,0,0,1
117674260,0,0,1
117691940,0,0,1
117709608,0,0,1
117727296,0,0,1
117744980,0,0,1
117762652,0,0,1
117780340,0,0,1
117798020,0,0,1
117815700,0,0,1
117833368,0,0,1
117851044,0,0,1
117868728,0,0,1
117886408,0,0,1
117904088,0,0,1
117921772,0,0,1
117939468,0,0,1
117957152,0,1,1
117974808,0,0,1
117992496,0,0,1
118010180,0,0,1
118027848,0,0,1
118045532,0,0,1
118063220,0,0,1
118080896,0,0,1
118098584,0,1,1
118116252,0,0,1
118133936,0,0,1
118151608,0,0,1
118169288,0,0,1
118186960,0,0,1
118204660,1,0,1
118222340,0,0,1
118240020,0,0,1
118257712,1,0,1
118275376,0,0,1
118293048,0,0,1
118310728,0,0,1
118328420,0,1,1
118346104,0,4,1
118363768,0,0,1
118381448,1,0,1
118399144,1,1,1
118416820,0,0,1
118434492,0,0,1
118452164,0,0,1
118469856,0,0,1
118487528,0,0,1
118505208,0,0,1
118522904,0,1,1
118540580,0,4,1
118558256,0,4,1
118575944,1,1,1
118593620,0,0,1
118611304,0,1,1
118628972,0,1,1
118646648,0,0,1
118664336,0,0,1
118682020,0,1,1
118699688,0,0,1
118717376,0,4,1
118735064,0,1,1
118752732,0,0,1
118770412,0,0,1
118788084,0,1,1
118805772,0,0,1
118823460,0,0,1
118841132,0,0,1
118858820,0,0,1
118876500,0,0,1
118894184,0,1,1
118911852,0,0,1
118929536,0,0,1
118947220,0,0,1
118964892,0,0,1
118982564,0,0,1
119000260,0,0,1
119017944,0,0,1
119035624,0,1,1
119053284,0,0,1
119070980,0,1,1
119088660,0,0,1
119106328,1,0,1
119124016,0,0,1
119141704,0,1,1
119159368,0,0,1
119177052,0,0,1
119194740,0,0,1
119212420,0,0,1
119230088,0,0,1
119247772,0,0,1
119265456,0,0,1
119283140,1,1,1
119300812,0,0,1
119318484,1,0,1
119336180,0,0,1
119353852,0,0,1
119371528,0,0,1
119389216,0,0,1
119406900,0,0,1
119424568,0,0,1
119442248,0,0,1
119459940,0,0,1
119477616,0,0,1
119495304,0,1,1
119512984,0,0,1
119530660,0,0,1
119548332,0,0,1
119566020,0,0,1
119583684,0,0,1
119601380,0,0,1
119619048,0,0,1
119636732,0,0,1
119654424,0,1,1
119672112,0,0,1
119689772,0,0,1
119707448,0,0,1
119725136,0,0,1
119742816,0,0,1
119760492,0,0,1
119778172,0,0,1
119795860,1,1,1
119813540,0,0,1
119831220,0,1,1
119848888,0,0,1
119866576,0,0,1
119884248,1,0,1
119901932,0,0,1
119919604,0,0,1
119937300,0,0,1
119954980,0,0,1
119972668,0,1,1
119990340,0,0,1
120008020,0,0,1
120025692,0,0,1
120043368,0,0,1
120061056,0,0,3
120078740,0,1,3
120096420,0,0,3
120114084,0,0,3
120131780,0,1,3
120149452,0,0,3
120167128,0,0,3
120184804,1,0,3
120202500,1,0,3
120220180,4,1,3
120237852,9,0,3
120255548,1,0,3
120273220,0,1,3
120290888,25,0,3
120309612,25,4,3
120328340,9,1,3
120346024,0,0,3
120363712,0,1,3
120381380,0,0,3
120399072,0,1,3
120416740,25,0,3
120435452,16,1,3
120454172,0,4,3
120471868,1,100,3
120491616,4,484,3
120511384,9,1156,3
120532180,36,784,3
120552980,225,4,3
120572728,121,676,3
120594568,16,4,3
120613284,64,4096,3
120635132,25,2809,3
120656964,324,784,3
120678828,49,676,3
120699628,16,9,3
120718344,1,49,3
120737064,16,121,3
120757860,9,16,3
120776580,25,100,3
120797376,49,16,3
120817140,4,64,3
120835864,16,36,3
120855620,289,1,3
120875380,256,9,3
120895132,0,25,3
120913840,49,144,3
120934660,484,169,3
120956504,81,49,3
120976256,81,0,3
120994988,729,9,3
121014744,441,64,3
121035548,36,1,3
121054260,49,49,3
121074024,49,1,3
121092732,121,81,3
121113528,100,25,3
121134344,64,16,3
121154104,36,49,3
121173852,0,9,3
121191544,25,0,3
121210264,121,16,3
121231060,49,1,3
121249776,25,4,3
121268508,81,25,3
121288252,400,4,3
121308012,324,4,3
121327792,576,1,3
121347540,196,25,3
121368332,64,25,3
121388116,25,0,3
121406832,36,4,3
121425548,100,1,3
121445304,324,25,3
121466108,121,9,3
121485868,1,16,3
121504580,81,0,3
121523308,9,1,3
121540980,81,0,3
121559700,64,16,3
121579444,0,4,3
121597140,16,1,3
121615860,16,0,3
121634580,100,1,3
121654348,81,0,3
121673068,64,0,3
121691780,0,0,3
121709448,0,4,3
121727144,0,1,3
121744824,4,49,3
121763540,1,81,3
121782260,16,1,3
121800984,9,25,3
121819704,4,4,3
121837384,81,49,3
121857148,121,1,3
121876896,1,0,3
121894576,4,0,3
121912248,9,1,3
121929944,4,0,3
121947616,225,0,3
121967384,225,9,3
121987144,36,4,3
122005864,64,1,3
122024572,81,16,3
122044340,64,1,3
122063060,169,9,3
122082828,169,1,3
122102584,49,16,3
122122348,81,0,3
122141072,36,9,3
122159788,4,4,3
122177460,1,4,3
122195140,81,49,3
122214896,64,0,3
122233628,9,16,3
122252340,4,0,3
122270020,49,16,3
122289772,81,16,3
122309536,1,1,3
122327224,25,0,3
122345940,121,1,3
122365700,49,1,3
122384420,64,49,3
122404180,25,36,3
122423932,16,0,3
122442648,36,4,3
122461380,144,16,3
122482180,256,0,3
122501928,144,0,3
122521700,36,1,3
122540424,81,1,3
122559136,81,4,3
122577848,100,0,3
122597636,64,1,3
122616344,256,16,3
122637132,81,9,3
122655860,36,0,3
122674580,441,4,3
122694332,169,25,3
122715148,36,9,3
122733856,484,0,3
122753616,196,4,3
122773384,25,0,3
122792108,4,0,3
122809776,9,0,3
122827456,144,1,3
122847212,225,9,3
122866984,64,9,3
122885692,9,0,3
122903376,16,0,3
122922108,25,1,3
122940820,1,0,3
122958504,49,4,3
122977216,64,1,3
122995952,4,1,3
123013620,81,1,3
123032332,49,9,3
123051064,0,4,3
123068752,25,0,3
123087464,100,0,3
123107220,16,0,3
123125936,9,0,3
123143612,64,1,3
123162344,121,9,3
123182112,0,1,3
123199776,144,36,3
123220576,25,49,3
123240332,25,0,3
123259060,25,9,3
123277780,1,0,3
123295460,169,0,3
123315216,900,36,3
123336028,289,25,3
123356820,16,4,3
123375536,4,16,3
123394268,4,1,3
123411928,0,9,3
123429616,9,9,3
123447292,36,9,3
123466024,64,0,3
123484732,25,16,3
123504492,9,1,3
123522184,144,9,3
123541940,144,0,3
123561704,64,4,3
123580408,441,9,3
123600184,289,9,3
123619932,121,16,3
123640736,196,1,3
123660508,121,1,3
123680268,4,9,3
123697940,36,4,3
123716668,9,4,3
123734344,64,4,3
123753060,100,4,3
123772816,1,0,3
123790504,49,1,3
123809216,36,1,3
123827932,4,16,3
123846640,4,0,3
123864348,1,0,3
123882028,144,4,3
123901784,36,9,3
123920500,36,0,3
123939220,25,1,3
123957944,9,1,3
123975620,36,1,3
123994340,121,16,3
124015144,100,25,3
124035940,9,1,3
124053628,0,0,3
124071304,9,1,3
124088984,169,1,3
124108728,324,0,3
124128504,256,1,3
124148268,81,4,3
124166976,16,0,3
124185708,4,1,3
124203380,361,25,3
124224176,1024,4,3
124244964,169,0,3
124264744,81,4,3
124283464,256,9,3
124303224,25,25,3
124322980,169,9,3
124342732,256,16,3
124363548,4,1,3
124381220,256,4,3
124400976,144,0,3
124420728,1,4,3
124438412,1,4,3
124456108,9,0,3
124473776,36,0,3
124492496,0,0,3
124510176,4,0,3
124527868,9,0,3
124545528,25,25,3
124565308,4,9,3
124582984,100,1,3
124602748,49,9,3
124621464,25,1,3
124640172,4,0,3
124657872,0,1,3
124675544,16,9,3
124694260,16,1,3
124712992,1,4,3
124730660,36,36,3
124750416,64,4,3
124769132,196,0,3
124788904,529,36,3
124809688,64,36,3
124829460,1,1,3
124847136,1,0,3
124864820,16,0,3
124883528,225,16,3
124904340,100,36,3
124925144,121,0,3
124944892,289,9,3
124964660,9,1,3
124982348,9,9,3
125000024,9,9,3
125017708,4,0,3
125035372,25,0,3
125054108,49,0,3
125072828,36,4,3
125091536,0,1,3
125109208,36,9,3
125127944,9,9,3
125145636,1,1,3
125163300,4,0,3
125180980,0,0,3
125198664,196,0,3
125218420,324,16,3
125239208,0,25,3
125257952,9,4,3
125275624,49,9,3
125294348,9,1,3
125312032,196,0,3
125331788,169,36,3
125352580,25,25,3
125372320,441,0,3
125392100,484,16,3
125412904,9,9,3
125430580,0,0,3
125448260,169,9,3
125468016,441,36,3
125488812,256,9,3
125508564,121,0,3
125528344,9,9,3
125546024,0,0,3
125563700,64,1,3
125582428,361,0,3
125602184,16,1,3
125620908,25,0,3
125639616,9,0,3
125657312,1,1,3
125674984,1,4,3
125692660,36,1,3
125711384,324,49,3
125732188,144,100,3
125754016,1,25,3
125772724,4,4,3
125790424,0,1,3
125808108,16,1,3
125826816,16,4,3
125845548,196,36,3
125866344,25,1,3
125885060,25,9,3
125903772,100,0,3
125923544,0,0,3
125941224,324,0,3
125960988,81,4,3
125979708,25,0,3
125998428,100,4,3
126018180,289,4,3
126037940,9,0,3
126055624,49,25,3
126075380,0,25,3
126094104,16,4,3
126112836,1,9,3
126130504,100,0,3
126150252,256,0,3
126170020,4,1,3
126187704,144,4,3
126207452,49,9,3
126226176,1,0,3
126243860,1,0,3
126261548,36,1,3
126280264,4,4,3
126297944,36,49,3
126317708,0,4,3
126335392,9,0,3
126353060,144,16,3
126373844,81,16,3
126393628,0,1,3
126411300,9,0,3
126428984,49,4,3
126447708,324,0,3
126467464,49,25,3
126487212,49,4,3
126505924,36,4,3
126524668,25,4,3
126543384,16,0,3
126562092,0,1,3
126579780,0,1,3
126597464,4,0,3
126615136,4,0,3
126632820,1,4,3
126650504,49,1,3
126669224,196,1,3
126688972,225,9,3
126708740,100,9,3
126728512,4,1,3
126746188,16,1,3
126764900,25,1,3
126783628,1,16,3
126802344,36,0,3
126821056,1,0,3
126838724,16,4,3
126857460,36,1,3
126876188,36,0,3
126894892,441,9,3
126914660,100,4,3
126934424,4,4,3
126952100,9,1,3
126969772,16,0,3
126988500,225,0,3
127008252,529,16,3
127029048,144,9,3
127048828,1,1,3
127066500,0,1,3
127084172,4,1,3
127101860,25,0,3
127120588,169,1,3
127140332,25,9,3
127159052,4,0,3
127176752,4,1,3
127194424,169,1,3
127214168,1225,16,3
127236012,1369,36,3
127257860,484,9,3
127277624,0,1,3
127295300,4,4,3
127312980,400,36,3
127333796,49,64,3
127353536,36,49,3
127373284,36,4,3
127392024,0,0,3
127409704,25,0,3
127428412,64,0,3
127447144,324,1,3
127466912,169,1,3
127486660,4,36,3
127505372,4,16,3
127524104,9,4,3
127541792,16,0,3
127560496,100,0,3
127580260,64,25,3
127600020,400,1,3
127619780,121,16,3
127640568,9,0,3
127658260,49,0,3
127676980,81,1,3
127695708,9,16,3
127714428,16,1,3
127733144,16,4,3
127751864,64,1,3
127770572,576,64,3
127791376,169,169,3
127813224,196,121,3
127835044,196,49,3
127855860,0,1,3
127873536,49,81,3
127893300,400,4,3
127913060,49,49,3
127932828,225,25,3
127953612,196,1,3
127973368,529,81,3
127994184,400,16,3
128014980,16,4,3
128033696,1024,4,3
128054500,400,25,3
128075312,25,9,3
128094016,1369,49,3
128115856,3969,121,3
128138736,1936,121,3
128161608,625,64,3
128182416,484,64,3
128203224,9,9,3
128220892,196,25,3
128241704,256,9,3
128261456,9,0,3
128279136,1936,16,3
128300972,784,169,3
128322816,529,25,3
128343620,784,16,3
128364408,256,9,3
128384180,841,1,3
128403940,25,9,3
128422664,256,36,3
128443460,784,4,3
128463220,1,64,3
128481932,484,4,3
128501692,0,16,3
128520428,324,25,3
128541228,676,100,3
128563056,289,4,3
128582832,196,144,3
128604648,576,36,3
128625440,4096,81,3
128647304,441,121,3
128669128,2116,9,3
128689928,4489,81,3
128711780,121,25,3
128732580,1849,81,3
128754416,16,4,3
128773144,36,64,3
128792900,225,25,3
128813692,529,64,3
128834488,1936,4,3
128855304,1296,121,3
128878188,81,16,3
128897936,361,25,3
128918736,324,16,3
128939552,4,9,3
128957224,484,81,3
128978028,225,16,3
128998820,1,49,3
129017532,0,0,3
129035208,324,4,3
129054992,2304,0,3
129075780,961,121,3
129097620,25,81,3
129117384,289,9,3
129137136,9,49,3
129155844,1521,121,3
129178736,1225,729,3
129201612,196,36,3
129222408,2401,49,3
129244264,2304,9,3
129265052,2809,81,3
129286884,2116,324,3
129309776,625,225,3
129331608,289,100,3
129353444,16,16,3
129373220,36,81,3
129392984,36,144,3
129413792,1024,36,3
129435608,1936,36,3
129457464,576,0,3
129477216,4,36,3
129495944,324,4,3
129515704,144,25,3
129536492,0,9,3
129554172,256,16,3
129574984,0,81,3
129593696,25,0,3
129612412,196,25,3
129633216,100,169,3
129655064,100,25,3
129675852,169,64,3
129696656,1225,4,3
129717464,256,9,3
129737212,784,4,3
129756976,1600,36,3
129778824,144,9,3
129798568,841,1,3
129818336,2500,9,3
129839144,1156,64,3
129860988,100,16,3
129881760,3481,100,3
129904668,3721,256,3
129927544,625,16,3
129948348,1,1,3
129966012,4,1,3
129983712,16,9,3
130002424,121,4,3
130022172,144,36,3
130042988,81,1,3
130061696,676,49,6
130082488,484,64,6
130103284,81,0,6
130122016,81,0,6
130140732,2601,100,6
130163612,0,1,6
130181296,3721,256,6
130204184,196,121,6
130226020,2025,64,6
130247868,1444,16,6
130269688,196,441,6
130291532,100,1225,6
130314424,25,441,6
130335220,36,64,6
130354976,1764,0,6
130375772,3025,49,6
130397608,2025,225,6
130420492,576,49,6
130441308,64,1,6
130460028,64,9,6
130478728,121,4,6
130498488,225,1,6
130518260,49,49,6
130538032,25,49,6
130557772,576,4,6
130577536,169,4,6
130597304,0,361,6
130617048,121,1024,6
130639932,196,400,6
130661780,1936,1,6
130682580,961,16,6
130703384,324,16,6
130724172,196,0,6
130743924,81,484,6
130764728,4096,529,6
130787624,676,36,6
130808424,81,16,6
130828184,100,25,6
130848972,484,961,6
130870820,3844,1444,6
130894736,729,576,6
130916588,100,36,6
130937392,169,25,6
130958168,2304,225,6
130981060,2116,225,6
131003944,64,4,6
131022660,961,144,6
131044504,400,0,6
131064268,36,0,6
131082988,1,4,6
131100644,100,16,6
131121464,0,0,6
131139148,36,9,6
131157852,100,4,6
131177620,144,0,6
131197380,100,36,6
131218176,225,36,6
131238980,100,25,6
131259788,100,9,6
131279532,1,16,6
131298252,225,0,6
131318024,9,1,6
131335704,256,16,6
131356500,144,0,6
131376260,25,9,6
131394980,9,16,6
131413700,9,121,6
131433448,484,0,6
131453216,1024,25,6
131475056,1369,25,6
131496888,1024,144,6
131519780,676,121,6
131541628,9,0,6
131559292,729,9,6
131579060,0,9,6
131596728,361,81,6
131617540,64,9,6
131636260,625,9,6
131656028,1444,144,6
131678876,4489,64,6
131700724,4900,121,6
131723624,9,144,6
131743380,961,81,6
131764168,256,81,6
131784988,25,1,6
131803692,169,1,6
131823452,36,0,6
131842184,841,4,6
131861944,169,25,6
131882744,121,1,6
131902500,729,1,6
131922264,2116,49,6
131944096,841,81,6
131964884,900,0,6
131984652,1936,36,6
132006488,49,4,6
132025216,196,1,6
132044992,324,1,6
132064736,441,36,6
132085532,196,64,6
132106336,169,9,6
132126092,676,100,6
132147944,121,0,6
132167704,1444,49,6
132189536,225,36,6
132210340,484,0,6
132230088,1296,25,6
132251948,1764,121,6
132274828,1024,169,6
132297680,1936,100,6
132320576,1936,100,6
132343456,16,256,6
132364252,64,64,6
132384016,256,1,6
