Timestamp (micros),Sensor1 (mV),Sensor2 (mV)
9986100, 0, 0
850003784, 0, 0
850021472, 0, 0
850039148, 0, 0
850056816, 0, 0
850074492, 0, 0740, 0, 0
849968420, 0, 0
849986100, 0, 0
850003784, 0, 0
850021472, 0, 0
850039148, 0, 0
850056816, 0, 0
850074492, 0, 51612, 10609, 8649
53864, 9025, 3136
56088, 441, 169
58224, 100, 121
61716, 324, 400
79404, 324, 121
97068, 0, 64
111632, 144, 121
130356, 64, 16
146996, 9, 49
162592, 25, 16
179240, 0, 25
194836, 49, 49
211480, 16, 1
227080, 16, 9
242668, 16, 25
259320, 0, 9
273872, 16, 4
289464, 1, 0
304036, 1, 9
318608, 4, 4
333164, 1, 1
347708, 9, 4
362268, 0, 0
376840, 0, 4
391396, 1, 0
405948, 0, 1
420520, 4, 0
435068, 0, 0
449636, 0, 1
464192, 1, 0
478768, 0, 0
493320, 1, 1
507860, 1, 0
522448, 4, 1
537008, 0, 1
551560, 1, 1
566112, 1, 0
580692, 1, 1
595244, 1, 0
609784, 1, 0
624356, 1, 0
638904, 0, 0
653476, 0, 0
668036, 1, 0
682600, 0, 0
697160, 0, 1
711716, 0, 1
726276, 1, 1
740840, 0, 0
755384, 0, 0
769952, 0, 4
784516, 0, 1
799080, 0, 1
813640, 1, 1
828200, 1, 0
842744, 0, 0
857316, 0, 0
871872, 0, 1
886428, 0, 0
900996, 1, 0
915564, 1, 1
930124, 0, 0
944676, 0, 0
959236, 1, 0
973792, 0, 0
988356, 0, 1
1002920, 0, 1
1018512, 0, 1
1034104, 0, 0
1049716, 1, 4
1065316, 0, 9
1080916, 1, 0
1096516, 1, 0
1112116, 0, 0
1127716, 0, 1
1143312, 0, 0
1158920, 0, 0
1174508, 1, 0
1190116, 0, 0
1205708, 0, 0
1221316, 0, 0
1236912, 0, 1
1252520, 0, 1
1268116, 0, 0
1283716, 1, 0
1299316, 1, 0
1314920, 1, 1
1330516, 0, 0
1346104, 0, 0
1361704, 0, 0
1377316, 0, 0
1392916, 0, 0
1408520, 0, 1
1424120, 0, 0
1439704, 0, 1
1455316, 0, 1
1470908, 0, 0
1486504, 0, 0
1502108, 0, 1
1517716, 0, 0
1533316, 0, 1
1548912, 0, 4
1564520, 1, 0
1580120, 0, 1
1595724, 0, 0
1611312, 0, 1
1626908, 0, 0
1642508, 0, 0
1658120, 0, 1
1673716, 1, 4
1689304, 0, 0
1704912, 0, 4
1720516, 0, 0
1736120, 1, 1
1751708, 0, 4
1767304, 0, 0
1782924, 0, 0
1798528, 0, 0
1814108, 0, 0
1829708, 0, 1
1845324, 1, 0
1860928, 1, 0
1876520, 0, 0
1892108, 0, 0
1907708, 1, 0
1923316, 0, 0
1938916, 1, 1
1954520, 0, 4
1970100, 0, 0
1985716, 0, 0
2001316, 0, 4
2016920, 1, 1
2032520, 0, 1
2048116, 1, 0
2063716, 0, 1
2079316, 1, 0
2094908, 1, 1
2110516, 4, 0
2126120, 0, 1
2141720, 0, 1
2157308, 0, 0
2172900, 1, 4
2188516, 1, 1
2204104, 4, 0
2219720, 1, 0
2235312, 0, 0
2250916, 0, 0
2266512, 0, 0
2282108, 0, 1
2297720, 0, 1
2313316, 0, 1
2328916, 0, 0
2344508, 0, 0
2360120, 0, 1
2375716, 0, 0
2391316, 0, 0
2406916, 0, 0
2422512, 0, 0
2438112, 0, 4
2453712, 0, 0
2469308, 1, 0
2484916, 0, 1
2500512, 0, 1
2516116, 0, 0
2531720, 1, 1
2547312, 0, 1
2562912, 0, 1
2578516, 0, 4
2594120, 1, 16
2610756, 4, 4
2626356, 9, 0
2641956, 0, 4
2657560, 0, 0
2673160, 0, 25
2689792, 0, 9
2705392, 1, 0
2720996, 1, 0
2736596, 4, 1
2752188, 0, 0
2767784, 0, 4
2783400, 0, 4
2799008, 0, 0
2814588, 0, 0
2830188, 0, 1
2845796, 0, 4
2861396, 0, 1
2876988, 0, 1
2892596, 1, 4
2908196, 1, 0
2923804, 0, 0
2939396, 0, 9
2954996, 1, 4
2970592, 1, 0
2986196, 0, 0
3001788, 0, 9
3017396, 1, 4
3032984, 0, 0
3048596, 0, 0
3064192, 0, 0
3079800, 0, 1
3095396, 0, 0
3110996, 0, 4
3126600, 0, 1
3142188, 0, 0
3157792, 1, 0
3173396, 1, 0
3188996, 1, 4
3204600, 1, 1
3220188, 0, 1
3235792, 0, 0
3251396, 0, 0
3266992, 0, 0
3282596, 0, 0
3298188, 0, 0
3313796, 0, 0
3329400, 1, 0
3344988, 0, 0
3360588, 0, 1
3376204, 0, 0
3391796, 0, 0
3407404, 4, 0
3422996, 1, 0
3438580, 1, 0
3454200, 0, 1
3469788, 0, 0
3485388, 1, 0
3500992, 0, 0
3516600, 1, 0
3532208, 1, 1
3547788, 0, 0
3563396, 0, 0
3579004, 0, 0
3594604, 0, 0
3610196, 1, 0
3625788, 1, 0
3641396, 0, 0
3656996, 0, 0
3672596, 0, 0
3688188, 0, 0
3703784, 0, 1
3719400, 0, 1
3734984, 0, 0
3750588, 0, 4
3766184, 0, 0
3781796, 0, 1
3797400, 0, 0
3812984, 0, 0
3828592, 0, 1
3844192, 0, 0
3859796, 1, 1
3875400, 1, 0
3890988, 0, 0
3906596, 0, 1
3922200, 0, 1
3937796, 1, 0
3953400, 1, 1
3968988, 4, 4
3984604, 1, 0
4000200, 1, 1
4015796, 1, 1
4031392, 1, 1
4047000, 1, 0
4062592, 0, 0
4078184, 1, 0
4093788, 0, 1
4109396, 0, 0
4124992, 0, 0
4140592, 1, 0
4156192, 0, 4
4171796, 0, 0
4187396, 0, 4
4202984, 0, 0
4218592, 0, 1
4234192, 0, 0
4249792, 1, 0
4265400, 1, 1
4280988, 0, 1
4296600, 0, 4
4312196, 0, 1
4327800, 0, 0
4343392, 0, 1
4358988, 0, 1
4374608, 0, 0
4390196, 0, 0
4405792, 0, 0
4421396, 0, 4
4436996, 1, 0
4452600, 0, 0
4468196, 1, 0
4483796, 1, 0
4499388, 0, 0
4514992, 0, 0
4530588, 0, 1
4546200, 0, 0
4561788, 0, 0
4577400, 0, 1
4592996, 0, 0
4608600, 0, 0
4624196, 0, 0
4639800, 0, 4
4655396, 0, 0
4670996, 0, 0
4686592, 0, 4
4702192, 0, 1
4717804, 0, 0
4733388, 0, 0
4749000, 1, 1
4764588, 1, 0
4780196, 0, 0
4795800, 0, 4
4811388, 0, 4
4826992, 0, 1
4842596, 0, 1
4858200, 0, 1
4873788, 0, 1
4889384, 0, 0
4904992, 1, 0
4920600, 0, 1
4936196, 0, 0
4951788, 1, 0
4967392, 0, 0
4982992, 1, 0
4998588, 0, 0
5014200, 1, 1
5029788, 0, 1
5045396, 0, 0
5060996, 0, 1
5076588, 0, 0
5092200, 0, 0
5107796, 0, 0
5123396, 1, 0
5138992, 0, 1
5154588, 0, 0
5170192, 1, 0
5185800, 0, 1
5201392, 0, 0
5216984, 1, 0
5232584, 4, 1
5248200, 4, 1
5263796, 1, 0
5279388, 0, 1
5295000, 0, 0
5310600, 0, 1
5326196, 0, 1
5341796, 0, 0
5357396, 0, 1
5372996, 0, 0
5388596, 0, 0
5404196, 0, 0
5419784, 0, 0
5435396, 1, 0
5451000, 0, 1
5466588, 0, 0
5482196, 1, 0
5497792, 1, 0
5513400, 0, 0
5528996, 0, 1
5544584, 0, 0
5560188, 0, 4
5575800, 0, 0
5591396, 0, 1
5606988, 0, 0
5622588, 0, 1
5638200, 0, 1
5653800, 0, 1
5669396, 0, 4
5684988, 0, 0
5700584, 0, 0
5716204, 1, 0
5731800, 0, 0
5747392, 0, 1
5762980, 0, 0
5778604, 1, 0
5794204, 0, 1
5809788, 0, 9
5825388, 1, 0
5840996, 1, 1
5856608, 1, 4
5872204, 1, 1
5887788, 0, 0
5903400, 1, 1
5918996, 0, 0
5934584, 0, 0
5950188, 0, 0
5965784, 1, 1
5981396, 0, 1
5996988, 0, 0
6012584, 1, 0
6028188, 1, 0
6043792, 0, 0
6059400, 0, 4
6074992, 0, 1
6090588, 0, 1
6106192, 0, 0
6121792, 0, 0
6137396, 1, 0
6152996, 1, 0
6168596, 4, 0
6184196, 1, 1
6199788, 0, 4
6215396, 0, 0
6230980, 0, 1
6246596, 0, 0
6262188, 0, 0
6277800, 0, 1
6293396, 1, 0
6308992, 0, 0
6324600, 0, 1
6340188, 0, 0
6355800, 1, 1
6371392, 0, 0
6386996, 0, 1
6402592, 0, 0
6418188, 0, 0
6433796, 0, 1
6449396, 0, 0
6464996, 1, 0
6480596, 0, 1
6496188, 1, 0
6511796, 0, 0
6527392, 0, 0
6542988, 1, 0
6558588, 0, 0
6574208, 1, 0
6589796, 0, 1
6605392, 0, 0
6620992, 0, 1
6636600, 0, 9
6652208, 1, 0
6667792, 0, 0
6683388, 0, 0
6698984, 4, 1
6714596, 4, 0
6730188, 0, 1
6745788, 0, 0
6761380, 1, 0
6776992, 0, 4
6792592, 0, 0
6808188, 0, 0
6823788, 1, 0
6839392, 0, 0
6855000, 0, 9
6870600, 4, 9
6886196, 1, 0
6901792, 0, 0
6917400, 1, 0
6932988, 0, 0
6948592, 0, 1
6964184, 0, 1
6979796, 0, 0
6995400, 0, 1
7010988, 0, 0
7026588, 4, 0
7042196, 0, 0
7057796, 0, 0
7073388, 0, 0
7088988, 1, 0
7104600, 0, 0
7120196, 0, 0
7135788, 0, 0
7151392, 0, 0
7167000, 0, 1
7182596, 0, 0
7198200, 0, 1
7213796, 0, 0
7229384, 0, 1
7244996, 1, 0
7260600, 1, 1
7276188, 0, 0
7291788, 0, 0
7307392, 0, 0
7322996, 1, 0
7338592, 0, 4
7354196, 1, 0
7369796, 0, 0
7385396, 1, 1
7401008, 0, 1
7416596, 0, 0
7432180, 0, 0
7447796, 1, 0
7463388, 0, 0
7478988, 0, 0
7494592, 0, 1
7510196, 0, 1
7525800, 0, 4
7541396, 0, 0
7556988, 0, 0
7572600, 0, 1
7588192, 0, 0
7603788, 0, 4
7619388, 0, 4
7635008, 0, 1
7650596, 0, 0
7666200, 0, 1
7681788, 0, 0
7697388, 1, 0
7712996, 0, 1
7728588, 0, 0
7744188, 0, 0
7759780, 0, 0
7775396, 0, 0
7790996, 0, 1
7806596, 0, 0
7822196, 0, 1
7837808, 0, 1
7853396, 0, 0
7868992, 0, 1
7884584, 0, 0
7900192, 1, 0
7915800, 0, 1
7931384, 0, 0
7946988, 0, 1
7962580, 0, 0
7978196, 0, 1
7993788, 1, 0
8009388, 0, 0
8024988, 1, 0
8040592, 1, 0
8056196, 0, 1
8071788, 0, 0
8087388, 0, 0
8102996, 0, 4
8118600, 0, 1
8134200, 0, 0
8149788, 0, 0
8165396, 0, 1
8180996, 0, 0
8196588, 0, 0
8212196, 1, 0
8227780, 0, 0
8243396, 0, 1
8258988, 0, 4
8274600, 0, 0
8290188, 0, 0
8305792, 0, 0
8321396, 0, 0
8336988, 1, 0
8352596, 1, 0
8368196, 1, 0
8383796, 1, 0
8399404, 1, 0
8414996, 4, 0
8430588, 0, 0
8446192, 1, 0
8461788, 4, 1
8477388, 9, 4
8492992, 1, 0
8508596, 0, 1
8524196, 0, 0
8539784, 0, 0
8555400, 0, 1
8571004, 1, 0
8586608, 1, 0
8602188, 0, 0
8617796, 0, 0
8633404, 0, 0
8649000, 0, 1
8664596, 0, 0
8680188, 0, 0
8695784, 0, 1
8711396, 1, 0
8726992, 4, 1
8742596, 1, 0
8758192, 0, 1
8773804, 0, 0
8789396, 0, 1
8804992, 0, 1
8820596, 1, 4
8836204, 1, 1
8851808, 0, 1
8867392, 0, 1
8882984, 0, 0
8898596, 4, 0
8914200, 0, 1
8929796, 0, 0
8945388, 0, 0
8960980, 0, 0
8976596, 0, 4
8992196, 0, 1
9007788, 0, 0
9023388, 0, 0
9039004, 1, 0
9054604, 0, 0
9070188, 0, 0
9085800, 0, 4
9101400, 0, 0
9116996, 0, 1
9132592, 0, 0
9148188, 0, 0
9163796, 0, 0
9179396, 0, 0
9194996, 0, 0
9210596, 0, 0
9226188, 0, 0
9241796, 0, 0
9257384, 0, 0
9272992, 0, 1
9288596, 1, 1
9304196, 0, 1
9319792, 0, 0
9335388, 0, 1
9351000, 0, 0
9366596, 0, 1
9382196, 0, 1
9397808, 0, 0
9413396, 0, 0
9428984, 0, 1
9444596, 0, 0
9460200, 4, 0
9475800, 4, 1
9491380, 0, 0
9506996, 0, 1
9522596, 0, 1
9538192, 0, 1
9553796, 0, 0
9569404, 0, 0
9584996, 0, 0
9600584, 1, 0
9616184, 0, 0
9631796, 0, 0
9647396, 0, 0
9662996, 0, 1
9678588, 0, 0
9694188, 1, 0
9709796, 0, 1
9725400, 0, 1
9740988, 0, 1
9756580, 0, 0
9772196, 0, 1
9787796, 0, 1
9803388, 0, 1
9818992, 0, 1
9834608, 0, 0
9850196, 1, 0
9865788, 0, 1
9881392, 0, 1
9897004, 0, 0
9912600, 0, 4
9928196, 1, 0
9943796, 1, 0
9959388, 1, 0
9974996, 1, 0
9990588, 0, 1
10006184, 0, 0
10022820, 0, 0
10039476, 0, 0
10056116, 0, 0
10072756, 0, 1
10089380, 0, 0
10106036, 1, 0
10122676, 1, 0
10139304, 0, 0
10155948, 1, 0
10172600, 0, 0
10189236, 0, 0
10205868, 0, 1
10222500, 0, 0
10239156, 1, 0
10255788, 0, 0
10272428, 0, 0
10289056, 0, 0
10305712, 1, 0
10322344, 0, 0
10338988, 0, 1
10355636, 0, 0
10372288, 0, 1
10388908, 0, 0
10405560, 1, 0
10422180, 0, 0
10438836, 1, 0
10455468, 0, 0
10472108, 0, 1
10488740, 0, 0
10505396, 0, 0
10522028, 0, 0
10538664, 0, 0
10555300, 1, 0
10571952, 1, 0
10588584, 4, 0
10605236, 1, 0
10621860, 0, 0
10638516, 4, 0
10655160, 1, 0
10671788, 0, 0
10688416, 0, 0
10705068, 0, 1
10721712, 1, 0
10738348, 0, 0
10754992, 0, 0
10771648, 0, 0
10788268, 0, 0
10804908, 0, 1
10821540, 0, 0
10838196, 1, 0
10854824, 0, 1
10871472, 4, 1
10888108, 4, 1
10904756, 0, 0
10921400, 0, 0
10938044, 1, 0
10954668, 1, 0
10971324, 0, 1
10987952, 25, 0
11005628, 9, 9
11022260, 0, 0
11038916, 9, 0
11055544, 0, 0
11072196, 4, 9
11088828, 169, 25
11108592, 729, 0
11127316, 196, 9
11146040, 9, 1
11162688, 0, 9
11179320, 64, 16
11198028, 169, 1
11216760, 9, 9
11233400, 25, 9
11251092, 16, 16
11269792, 0, 0
11286432, 1, 16
11304124, 0, 64
11321800, 4, 36
11339468, 4, 25
11357144, 49, 1
11374832, 64, 225
11394600, 25, 256
11414352, 144, 9
11433072, 16, 324
11452836, 121, 729
11473628, 121, 576
11494448, 169, 225
11515240, 121, 25
11534996, 144, 121
11555788, 196, 441
11576592, 25, 289
11596360, 0, 529
11615084, 49, 784
11634836, 64, 25
11653552, 16, 64
11672268, 64, 324
11692024, 16, 841
11711796, 9, 144
11730512, 196, 1
11749240, 49, 36
11767956, 0, 100
11786668, 25, 144
11806440, 49, 169
11826196, 9, 49
11843880, 4, 1
11860528, 4, 1
11877160, 0, 16
11894844, 9, 1
11911476, 25, 81
11930192, 1, 324
11948900, 4, 144
11967640, 25, 484
11987392, 9, 16
12005068, 81, 0
12022756, 36, 36
12041476, 0, 225
12060196, 100, 49
12079944, 324, 256
12100756, 324, 576
12121544, 196, 225
12142352, 121, 36
12162120, 9, 100
12180832, 16, 144
12200596, 121, 81
12220340, 64, 25
12239080, 64, 36
12257796, 64, 121
12277540, 16, 121
12297316, 100, 64
12317080, 81, 49
12335796, 9, 49
12353468, 16, 4
12371148, 144, 144
12391960, 25, 100
12411724, 25, 25
12430440, 9, 256
12449160, 25, 81
12467880, 4, 16
12485544, 9, 441
12504284, 1, 576
12522988, 100, 256
12543796, 256, 36
12563564, 81, 49
12582280, 0, 25
12599956, 36, 196
12619712, 36, 729
12639476, 1, 169
12658208, 4, 4
12674844, 4, 1
12691488, 9, 9
12708112, 36, 256
12727876, 9, 225
12746592, 4, 0
12763240, 1, 0
12779896, 9, 1
12796512, 0, 1
12813152, 9, 1
12829800, 36, 9
12847472, 25, 289
12867236, 196, 529
12888020, 256, 25
12907800, 196, 4
12926520, 4, 0
12943156, 36, 81
12961876, 49, 25
12980604, 25, 25
12999308, 144, 841
13020100, 196, 576
13040912, 225, 324
13061708, 81, 529
13081476, 16, 36
13100204, 9, 36
13117872, 16, 256
13137632, 49, 49
13156360, 64, 9
13174040, 25, 64
13192744, 9, 289
13211476, 49, 484
13231232, 36, 144
13251000, 49, 196
13270744, 100, 441
13291560, 25, 196
13311328, 16, 0
13328988, 4, 0
13345632, 25, 144
13365408, 225, 225
13386188, 400, 49
13405956, 225, 1
13424680, 4, 121
13443396, 81, 484
13463160, 100, 361
13483956, 36, 36
13502680, 100, 121
13523484, 25, 400
13543232, 100, 484
13564040, 121, 400
13584836, 16, 1
13602504, 4, 36
13620188, 0, 0
13636836, 0, 25
13654516, 4, 144
13673228, 0, 25
13690920, 0, 36
13708608, 0, 121
13727316, 9, 64
13744984, 4, 4
13761640, 36, 1
13779320, 121, 16
13799076, 81, 1
13816740, 49, 4
13834440, 1, 256
13853148, 36, 225
13872916, 64, 36
13891636, 64, 0
13909320, 100, 64
13929076, 4, 225
13947796, 25, 64
13966520, 25, 4
13984192, 4, 49
14001868, 25, 16
14020596, 49, 0
14038280, 16, 9
14055964, 0, 4
14072604, 4, 1
14089232, 144, 36
14108996, 144, 0
14127720, 9, 144
14146436, 0, 49
14164116, 0, 1
14180764, 36, 4
14198436, 256, 121
14219224, 81, 100
14239000, 9, 36
14256680, 4, 81
14274344, 0, 81
14292040, 16, 196
14311796, 64, 64
14330524, 49, 1
14348192, 4, 0
14364836, 0, 0
14381484, 0, 0
14398112, 4, 36
14415780, 0, 64
14433480, 0, 36
14451152, 25, 36
14469876, 49, 0
14487548, 4, 25
14505236, 4, 4
14521888, 9, 1
14538508, 0, 1
14555160, 9, 4
14571792, 4, 36
14589484, 9, 196
14608188, 25, 36
14626916, 16, 4
14644608, 1, 25
14662268, 4, 4
14678916, 0, 1
14695560, 49, 36
14714280, 25, 25
14733000, 0, 9
14749628, 4, 25
14767312, 16, 1
14784996, 4, 0
14801624, 16, 0
14819304, 25, 0
14837000, 1, 169
14855724, 0, 441
14874436, 16, 144
14894196, 16, 9
14911876, 4, 0
14928516, 1, 4
14945164, 1, 4
14961816, 1, 25
14979472, 4, 225
14998192, 4, 64
15015872, 0, 36
15033560, 16, 16
15052276, 36, 64
15070996, 0, 196
15089720, 9, 25
15107404, 16, 1
15125088, 25, 1
15142748, 9, 16
15160440, 9, 4
15177080, 64, 144
15196828, 4, 121
15215548, 9, 16
15233232, 0, 49
15250912, 4, 196
15269636, 25, 4
15287316, 9, 1
15303960, 16, 49
15322672, 1, 49
15340352, 16, 100
15360128, 4, 25
15377804, 4, 9
15394436, 4, 4
15411072, 1, 4
15427724, 1, 0
15444368, 1, 1
15460996, 9, 1
15477636, 16, 16
15496368, 1, 1
15512996, 0, 36
15530676, 1, 64
15548352, 4, 36
15566044, 1, 4
15582660, 1, 16
15600340, 1, 49
15618028, 1, 16
15635720, 9, 1
15652356, 4, 0
15669000, 0, 4
15685620, 0, 64
15703320, 0, 121
15722036, 1, 4
15738672, 0, 0
15755328, 1, 25
15772996, 1, 9
15789632, 0, 289
15808360, 36, 196
15828124, 49, 36
15846828, 0, 4
15863480, 1, 1
15880100, 0, 9
15896756, 9, 0
15913388, 4, 16
15931072, 0, 4
15947700, 0, 36
15965392, 0, 100
15984124, 1, 0
16000752, 0, 4
16017396, 4, 4
16034052, 1, 25
16051716, 4, 64
16069400, 0, 4
16086036, 4, 0
16102680, 0, 9
16119328, 4, 9
16135956, 1, 36
16153644, 0, 4
16170288, 0, 25
16187952, 0, 9
16204600, 0, 4
16221244, 0, 9
16237888, 0, 0
16254520, 1, 1
16271148, 0, 25
16288844, 0, 49
16306524, 1, 49
16324184, 1, 121
16342916, 0, 121
16361636, 4, 4
16378280, 1, 9
16394904, 0, 0
16411548, 0, 16
16429240, 0, 4
16445884, 0, 0
16462512, 0, 4
16479152, 0, 0
16495804, 4, 36
16513472, 1, 144
16532188, 4, 100
16550896, 9, 25
16568596, 1, 4
16585244, 0, 4
16601872, 0, 4
16618516, 1, 1
16635156, 4, 1
16651792, 9, 9
16668432, 9, 9
16685080, 0, 4
16701716, 0, 16
16719408, 4, 4
16736028, 0, 9
16752676, 0, 9
16769324, 1, 4
16785968, 0, 0
16802596, 4, 1
16819252, 1, 1
16835880, 0, 4
16852524, 1, 9
16869144, 4, 9
16885800, 0, 4
16902436, 4, 4
16919084, 1, 1
16935716, 1, 81
16953404, 1, 25
16971088, 9, 1
16987716, 0, 16
17005392, 1, 1
17022040, 0, 4
17038676, 0, 16
17056356, 1, 9
17072988, 4, 4
17089636, 0, 4
17106276, 9, 16
17123956, 4, 64
17141636, 9, 1
17158284, 9, 1
17174916, 0, 1
17191552, 9, 9
17208192, 9, 36
17225876, 9, 16
17243556, 4, 0
17260184, 0, 0
17276824, 0, 0
17293476, 0, 25
17311144, 1, 36
17328832, 0, 1
17345464, 0, 1
17362116, 0, 4
17378752, 0, 0
17395392, 4, 16
17413076, 16, 4
17430760, 1, 0
17447392, 0, 9
17464028, 0, 16
17481704, 0, 1
17498360, 0, 1
17514988, 0, 1
17531640, 1, 100
17550372, 0, 169
17569076, 16, 64
17587788, 36, 100
17607548, 16, 100
17627320, 1, 0
17643960, 1, 9
17660596, 0, 16
17678272, 9, 36
17695956, 9, 4
17712592, 25, 4
17730284, 25, 25
17749004, 1, 0
17765636, 4, 100
17784364, 4, 100
17803072, 4, 100
17821796, 4, 25
17839476, 0, 16
17857148, 9, 196
17875872, 0, 100
17894608, 25, 25
17913312, 64, 4
17930996, 16, 9
17948676, 0, 25
17966364, 9, 9
17983012, 9, 64
18000680, 4, 196
18019404, 1, 25
18037072, 9, 0
18053708, 0, 16
18071400, 1, 9
18088044, 9, 9
18104684, 4, 0
18121328, 0, 1
18137960, 1, 16
18155636, 1, 0
18172284, 4, 144
18190996, 16, 144
18210756, 25, 256
18230520, 9, 324
18249248, 16, 49
18267944, 25, 100
18287720, 0, 64
18305404, 0, 1
18322040, 9, 0
18338680, 0, 1
18355312, 1, 100
18374036, 4, 121
18392756, 49, 1
18410432, 25, 1
18428120, 1, 9
18444752, 16, 0
18462424, 0, 9
18479068, 16, 4
18496764, 0, 16
18514432, 1, 36
18532104, 36, 121
18551876, 81, 16
18570604, 25, 16
18589316, 0, 1
18605960, 1, 36
18623640, 1, 16
18641328, 36, 9
18658988, 0, 16
18676664, 36, 0
18694356, 0, 9
18710988, 1, 1
18727628, 0, 9
18744272, 1, 16
18761968, 1, 1
18778596, 4, 0
18795228, 1, 4
18811872, 1, 0
18828528, 4, 16
18846188, 0, 0
18862828, 0, 16
18880504, 0, 9
18897156, 1, 0
18913788, 4, 0
18930424, 1, 0
18947064, 0, 25
18964760, 0, 49
18982444, 1, 4
18999080, 9, 1
19015728, 1, 49
19033412, 1, 9
19050036, 1, 16
19067708, 4, 9
19084360, 9, 1
19101000, 16, 1
19118668, 0, 9
19135312, 1, 4
19151964, 1, 16
19169632, 9, 49
19187320, 25, 81
19206036, 36, 289
19225800, 16, 289
19245552, 16, 16
19264272, 16, 1
19281952, 1, 4
19298596, 0, 16
19316272, 1, 16
19333956, 1, 1
19350608, 4, 1
19367248, 9, 196
19385956, 1, 361
19404680, 49, 0
19422364, 16, 81
19441080, 1, 25
19458744, 4, 16
19476420, 25, 25
19495164, 0, 0
19511800, 4, 4
19528436, 1, 16
19546108, 4, 36
19563812, 1, 16
19581484, 4, 64
19599156, 25, 0
19616836, 16, 49
19635552, 4, 121
19654272, 4, 81
19671956, 0, 9
19688596, 1, 36
19706288, 4, 25
19723956, 0, 16
19741628, 16, 1
19759316, 36, 36
19778040, 1, 49
19795708, 0, 16
19813396, 4, 4
19830044, 4, 0
19846676, 0, 9
19863312, 36, 1
19881012, 16, 9
19898692, 1, 9
19915312, 9, 1
19931952, 36, 4
19949640, 9, 0
19966276, 1, 1
19982908, 0, 0
19999552, 0, 0
20016200, 25, 4
20033888, 16, 9
20051556, 9, 0
20068184, 9, 16
20085872, 0, 121
20104596, 9, 0
20121236, 49, 16
20139948, 16, 49
20158672, 0, 49
20176356, 9, 9
20192988, 25, 4
20210660, 36, 0
20228352, 16, 0
20246044, 25, 4
20263700, 49, 729
20283468, 81, 2116
20304268, 121, 361
20325068, 169, 49
20344824, 64, 144
20364604, 49, 25
20383316, 36, 4
20400988, 16, 16
20419720, 4, 9
20436364, 9, 36
20454036, 0, 36
20471708, 4, 4
20488368, 1, 0
20505004, 49, 9
20522680, 64, 1
20540352, 16, 0
20558036, 16, 9
20575704, 9, 49
20593384, 0, 36
20611064, 0, 1
20627716, 16, 9
20645408, 4, 49
20663084, 9, 64
20680768, 25, 1
20698440, 0, 16
20716108, 4, 4
20732744, 9, 0
20749396, 4, 4
20766044, 0, 0
20782664, 0, 0
20799312, 0, 1
20815956, 1, 16
20833640, 16, 49
20852356, 9, 0
20868988, 1, 9
20885636, 0, 0
20902288, 1, 9
20918916, 4, 100
20937632, 9, 196
20956364, 16, 25
20975084, 9, 9
20991716, 1, 0
21008344, 1, 1
21024992, 0, 1
21041636, 0, 4
21058272, 0, 0
21074908, 9, 16
21092592, 25, 64
21111328, 16, 9
21129000, 49, 0
21146680, 100, 9
21165396, 64, 25
21184116, 1, 4
21200748, 9, 0
21217404, 144, 1
21236120, 576, 16
21255868, 256, 49
21275632, 16, 1
21293324, 169, 0
21312032, 1369, 4
21331792, 3844, 16
21352600, 1156, 121
21374436, 64, 25
21393156, 121, 1
21411876, 1444, 0
21431644, 1521, 25
21452436, 841, 49
21472196, 4, 9
21488844, 256, 4
21507556, 4, 36
21525236, 169, 1
21543948, 0, 196
21562676, 49, 121
21582428, 64, 4
21600108, 961, 49
21619884, 100, 100
21640676, 9, 4
21657320, 121, 1
21676040, 4, 4
21692680, 256, 64
21712432, 625, 144
21733236, 25, 1
21750924, 576, 1
21769636, 576, 0
21788356, 36, 4
21806024, 1, 1
21822680, 49, 0
21840360, 49, 0
21858032, 9, 1
21874664, 0, 1
21891316, 4, 1
21907960, 16, 1
21925640, 36, 16
21944364, 1, 25
21962036, 9, 16
21979716, 64, 9
21997388, 324, 9
22016124, 64, 49
22034840, 81, 4
22052516, 0, 64
22070180, 484, 1
22088924, 81, 0
22106592, 196, 121
22127396, 16, 25
22146120, 441, 16
22165872, 1600, 169
22187716, 169, 36
22207460, 289, 64
22227244, 1225, 36
22248036, 324, 4
22266752, 400, 4
22285476, 9, 1
22302108, 3136, 25
22322908, 2304, 100
22344756, 49, 64
22363492, 4, 25
22381160, 289, 1
22399872, 324, 1
22418600, 36, 1
22436268, 1225, 9
22456028, 676, 36
22475808, 25, 36
22494524, 49, 0
22512192, 64, 25
22530912, 16, 4
22548604, 25, 1
22566276, 4, 0
22582912, 0, 0
22599560, 9, 1
22616204, 144, 9
22634920, 144, 9
22653632, 529, 49
22673380, 1, 16
22691076, 64, 25
22709800, 0, 4
22726436, 400, 25
22746208, 576, 9
22764920, 9, 16
22782588, 1, 0
22799236, 64, 0
22816916, 169, 4
22835624, 169, 0
22854348, 169, 49
22874108, 25, 9
22891800, 25, 16
22910516, 9, 9
22927148, 9, 25
22944844, 25, 1
22962516, 400, 16
22982268, 169, 0
23000984, 784, 64
23020752, 9, 144
23039464, 81, 0
23057156, 1, 0
23073788, 1, 1
23090440, 4, 9
23107076, 225, 9
23125792, 0, 16
23143480, 225, 4
23162200, 196, 0
23180912, 400, 16
23200664, 144, 144
23221472, 16, 100
23241240, 256, 49
23260980, 2209, 16
23281800, 2116, 225
23303640, 225, 64
23323388, 144, 25
23343156, 100, 36
23362924, 9, 4
23379564, 0, 4
23396196, 1, 25
23413872, 256, 4
23432588, 1369, 100
23454428, 1681, 144
23476284, 289, 100
23497076, 100, 4
23515800, 100, 25
23535560, 81, 36
23554292, 529, 25
23574048, 144, 36
23593800, 196, 0
23612528, 576, 9
23631244, 144, 0
23649952, 64, 0
23667624, 196, 16
23687396, 9, 16
23705068, 1, 0
23721716, 900, 25
23741484, 529, 36
23761236, 4, 4
23777872, 49, 4
23795548, 81, 0
23813248, 1, 1
23829884, 4, 1
23846512, 16, 16
23865232, 625, 16
23884992, 169, 4
23903708, 9, 4
23920364, 4, 1
23936984, 196, 4
23955720, 16, 9
23973412, 256, 4
23992104, 625, 1
24010832, 361, 144
24031636, 1764, 9
24051392, 196, 144
24072176, 196, 64
24091960, 64, 9
24109628, 144, 100
24130420, 400, 25
24150200, 64, 16
24168908, 5041, 9
24188664, 3969, 400
24210516, 49, 81
24229236, 1024, 144
24251072, 256, 25
24270832, 9, 4
24287492, 9, 9
24304120, 441, 4
24322832, 729, 0
24341560, 0, 9
24358200, 841, 0
24376908, 529, 49
24396680, 16, 9
24414344, 1936, 81
24435144, 6241, 256
24456988, 1156, 144
24478852, 16, 1
24496524, 36, 4
24514192, 1296, 25
24534992, 2025, 25
24555804, 625, 49
24575552, 4, 0
24592196, 64, 9
24609880, 0, 4
24626520, 324, 4
24645232, 256, 64
24664992, 25, 25
24683712, 529, 9
24702432, 900, 16
24722196, 49, 4
24739872, 144, 49
24759636, 0, 1
24776264, 1369, 0
24796032, 5041, 256
24817884, 1024, 121
24839716, 0, 64
24857400, 36, 1
24875084, 4, 100
24893796, 256, 64
24913556, 25, 36
24932276, 4, 1
24948924, 25, 25
24967632, 361, 1
24986348, 1089, 1
25006120, 1849, 16
25026924, 64, 81
25045644, 729, 4
25064348, 1369, 49
25085156, 2209, 36
25105964, 169, 144
25126764, 1156, 0
25146520, 961, 196
25167328, 1, 4
25183960, 81, 16
25202660, 25, 9
25220352, 196, 16
25240108, 100, 1
25258836, 196, 36
25278592, 784, 9
25297316, 144, 36
25317064, 25, 0
25334760, 16, 4
25352440, 9, 1
25369068, 400, 9
25387796, 16, 1
25405488, 841, 1
25424204, 49, 9
25441876, 25, 1
25459556, 49, 0
25477240, 9, 0
25493876, 625, 0
25512596, 100, 49
25532352, 225, 9
25551084, 441, 9
25569788, 1225, 16
25590584, 2704, 81
25611400, 2304, 196
25633224, 9, 64
25650908, 729, 9
25669620, 361, 0
25688364, 400, 64
25708112, 225, 0
25726832, 961, 36
25746592, 49, 81
25765308, 400, 4
25784028, 1444, 64
25804848, 100, 361
25825640, 36, 0
25843304, 576, 64
25863068, 49, 0
25880752, 841, 9
25899464, 9, 0
25916128, 169, 4
25934836, 0, 9
25951484, 36, 0
25969152, 144, 36
25988928, 324, 9
26007648, 144, 9
26026356, 25, 9
26044032, 121, 16
26063792, 0, 36
26081480, 729, 16
26101224, 2809, 196
26123064, 3844, 196
26144916, 1225, 100
26166752, 81, 25
26185480, 49, 4
26203160, 36, 0
26220836, 256, 4
26239552, 144, 25
26259316, 100, 9
26278044, 1, 0
26294692, 1, 0
26311320, 25, 0
26328988, 49, 0
26346680, 16, 4
26364360, 225, 1
26383072, 900, 49
26402836, 400, 36
26422604, 9, 9
26439236, 1, 16
26456920, 1, 4
26473564, 0, 1
26490200, 64, 0
26507868, 144, 9
26526592, 9, 0
26543232, 64, 25
26561964, 49, 36
26580676, 64, 1
26598348, 36, 0
26616048, 256, 9
26634760, 144, 25
26654512, 4, 4
26671156, 25, 0
26688844, 1, 1
26705472, 4, 16
26723160, 4, 0
26739804, 1, 1
26756436, 169, 0
26775148, 64, 9
26792828, 169, 0
26811564, 676, 16
26831324, 225, 9
26850044, 144, 9
26868760, 289, 16
26888516, 225, 36
26908276, 36, 25
26926992, 256, 4
26945724, 576, 36
26965472, 196, 49
26985232, 169, 9
27003956, 0, 4
27020604, 225, 1
27039308, 169, 16
27059068, 16, 4
27076756, 121, 0
27095480, 100, 9
27114196, 36, 0
27131868, 169, 16
27151644, 16, 1
27169316, 49, 1
27186988, 0, 25
27204684, 225, 1
27223400, 49, 4
27241068, 49, 4
27258756, 64, 36
27277480, 1089, 0
27297224, 961, 16
27316992, 1, 16
27334680, 576, 1
27353396, 169, 9
27372116, 1, 1
27388760, 49, 0
27406444, 64, 0
27424112, 64, 0
27441800, 576, 36
27461552, 361, 64
27481308, 1089, 36
27502120, 1296, 100
27523964, 36, 25
27542680, 324, 36
27562448, 81, 1
27580124, 441, 49
27599876, 784, 0
27618604, 400, 16
27638352, 100, 64
27658116, 25, 4
27675796, 324, 0
27694508, 576, 64
27714272, 49, 16
27732988, 36, 36
27751724, 16, 4
27769400, 49, 9
27787076, 81, 25
27805800, 16, 0
27823488, 25, 9
27841156, 9, 0
27857800, 144, 0
27876524, 64, 16
27895232, 841, 36
27914992, 81, 0
27932664, 121, 4
27951400, 784, 16
27971156, 0, 0
27987792, 441, 64
28007564, 49, 0
28025240, 196, 25
28044996, 441, 9
28063704, 25, 9
28081404, 1, 9
28098040, 16, 0
28115716, 441, 9
28134444, 196, 4
28153156, 81, 0
28170844, 4, 1
28187476, 144, 1
28206196, 841, 4
28224920, 2116, 49
28245712, 900, 100
28266516, 484, 9
28285240, 144, 9
28303948, 9, 4
28320600, 49, 1
28338280, 1, 1
28354924, 25, 1
28372592, 25, 4
28390276, 0, 0
28406916, 576, 1
28425632, 3249, 25
28446424, 1521, 100
28468280, 225, 0
28486996, 1764, 81
28507796, 529, 100
28528592, 9, 49
28546280, 25, 16
28564992, 1, 0
28581628, 256, 25
28601396, 25, 9
28619080, 400, 16
28638820, 3364, 81
28659620, 6724, 400
28681472, 289, 361
28702256, 1521, 16
28723076, 2601, 64
28743888, 529, 1
28762584, 576, 81
28782348, 1764, 169
28804204, 0, 16
28821876, 1369, 64
28842676, 841, 0
28861388, 0, 9
28878028, 576, 0
28896756, 1225, 100
28918592, 841, 196
28939408, 49, 4
28957084, 9, 0
28973716, 121, 16
28993468, 49, 0
29011160, 289, 9
29029876, 625, 16
29049628, 16, 25
29068360, 225, 16
29088116, 441, 1
29106828, 64, 25
29125552, 16, 0
29143248, 25, 1
29160912, 1, 4
29177552, 400, 1
29196268, 36, 1
29213960, 25, 0
29231636, 64, 0
29249320, 225, 0
29268036, 144, 16
29287812, 25, 4
29305472, 81, 0
29323156, 324, 9
29341880, 49, 16
29360604, 16, 9
29378280, 49, 16
29397000, 16, 4
29414672, 625, 0
29433388, 361, 9
29452116, 4, 0
29468764, 196, 36
29488532, 1, 16
29506200, 144, 1
29524912, 1, 1
29541560, 121, 36
29561312, 196, 9
29580032, 81, 9
29597720, 121, 9
29616448, 25, 4
29634112, 81, 0
29651788, 256, 9
29670524, 289, 36
29690280, 576, 49
29710036, 1, 81
29727712, 625, 1
29746440, 225, 16
29766196, 0, 1
29782836, 144, 16
29802592, 64, 0
29820272, 1156, 36
29841072, 289, 49
29860820, 25, 16
29879544, 81, 9
29897236, 1764, 25
29918032, 1296, 169
29939868, 1444, 25
29960668, 3721, 81
29981472, 2916, 225
30003316, 784, 64
30023080, 49, 1
30040748, 961, 36
30060508, 1600, 121
30082364, 4, 9
30098992, 324, 16
30118760, 225, 1
30137484, 0, 25
30155160, 81, 64
30173876, 225, 25
30193628, 529, 1
30212356, 1764, 49
30233148, 784, 81
30252908, 36, 1
30270608, 100, 9
30289316, 1936, 81
30310112, 2500, 225
30331968, 9, 81
30349644, 1444, 9
30369396, 1156, 9
30389148, 196, 9
30407880, 144, 36
30427632, 225, 0
30446336, 1369, 9
30466116, 2209, 36
30486916, 100, 36
30506668, 1156, 49
30527464, 484, 64
30547236, 625, 25
30566988, 1521, 81
30587792, 2025, 64
30608604, 576, 25
30628356, 9, 9
30644984, 361, 4
30663712, 1296, 16
30684516, 441, 4
30703224, 3364, 49
30724032, 324, 100
30744840, 49, 0
30762524, 49, 4
30780184, 1024, 1
30799956, 1156, 225
30821800, 0, 25
30839476, 121, 16
30859228, 324, 25
30878992, 576, 0
30897708, 1296, 169
30919552, 729, 36
30939316, 25, 16
30958040, 1, 0
30974680, 484, 1
30993380, 1936, 0
31013148, 361, 16
31032924, 900, 1
31051636, 9, 36
31069324, 2209, 36
31090112, 2304, 144
31111956, 784, 16
31131720, 361, 1
31150432, 2116, 16
31171228, 529, 81
31190984, 144, 0
31209716, 225, 100
31230508, 100, 4
31249228, 289, 25
31268980, 2401, 64
31289780, 10609, 576
31312668, 2116, 441
31334524, 25, 9
31352208, 16, 36
31370916, 81, 9
31388584, 361, 81
31408352, 1681, 36
31429156, 0, 9
31445792, 3025, 9
31465564, 784, 121
31486368, 4, 4
31502988, 361, 4
31521716, 1089, 36
31542516, 324, 25
31562288, 9, 0
31578916, 81, 4
31596600, 9, 1
31613240, 0, 4
31629864, 256, 4
31648600, 144, 4
31667320, 64, 1
31685008, 100, 9
31703712, 1, 0
31720352, 196, 4
31739084, 625, 49
31758836, 81, 25
31777544, 9, 0
31794196, 9, 0
31810840, 25, 0
31828520, 81, 16
31847228, 25, 4
31864920, 25, 4
31882600, 0, 1
31899228, 289, 0
31917952, 256, 25
31937716, 36, 4
31955396, 16, 1
31973080, 16, 4
31990748, 121, 1
32009488, 144, 25
32029228, 36, 9
32046916, 4, 0
32063552, 100, 0
32082276, 9, 4
32098912, 1, 0
32115556, 9, 0
32132204, 4, 0
32148840, 289, 1
32167548, 900, 36
32187304, 289, 36
32207084, 9, 4
32223712, 16, 9
32241396, 25, 0
32259064, 0, 4
32275720, 1, 1
32292356, 0, 0
32308992, 0, 0
32325616, 0, 0
32342272, 0, 0
32358912, 4, 0
32375560, 4, 1
32392188, 0, 1
32408832, 1, 0
32425472, 0, 0
32442104, 9, 0
32458744, 25, 0
32476436, 0, 1
32493088, 9, 0
32509716, 9, 1
32526352, 16, 0
32544040, 1, 0
32560676, 81, 0
32578352, 36, 4
32596044, 1, 0
32612680, 9, 0
32629324, 4, 4
32645960, 1, 1
32662592, 1, 0
32679240, 4, 1
32695880, 0, 1
32712516, 1, 0
32729160, 0, 1
32745788, 0, 0
32762432, 9, 0
32779076, 16, 0
32796760, 36, 0
32814440, 25, 1
32832120, 4, 1
32848752, 25, 0
32866436, 16, 0
32884116, 100, 4
32902828, 25, 1
32920504, 0, 0
32937160, 0, 1
32953788, 25, 1
32971468, 25, 0
32989152, 1, 1
33005804, 9, 0
33022436, 0, 0
33039076, 1, 0
33055712, 0, 0
33072364, 4, 0
33088996, 1, 0
33105632, 49, 4
33123300, 25, 4
33141000, 4, 0
33157632, 64, 1
33175316, 9, 1
33191964, 100, 0
33210676, 289, 9
33229392, 100, 9
33248116, 9, 1
33264764, 25, 4
33282436, 36, 4
33300124, 49, 1
33317796, 81, 4
33335480, 64, 4
33353164, 49, 1
33370844, 25, 1
33388516, 25, 1
33406192, 9, 0
33422824, 25, 0
33440520, 100, 1
33459248, 64, 1
33476912, 0, 0
33493552, 9, 0
33510192, 121, 0
33528916, 289, 9
33547624, 81, 9
33565304, 0, 0
33581952, 0, 1
33598612, 25, 1
33616288, 9, 0
33632916, 16, 0
33650596, 64, 4
33668272, 36, 4
33685948, 1, 4
33702596, 1, 0
33719232, 0, 1
33735888, 1, 9
33752516, 9, 9
33769144, 9, 4
33785784, 49, 1
33803476, 9, 1
33820112, 1, 0
33836756, 9, 1
33853380, 196, 16
33873156, 64, 4
33890844, 4, 16
33908508, 0, 9
33925160, 16, 1
33942840, 25, 9
33960508, 16, 9
33978196, 1, 4
33994844, 25, 1
34012512, 4, 0
34029144, 36, 0
34046828, 100, 9
34065560, 16, 4
34083236, 64, 9
34100920, 16, 9
34118596, 16, 0
34136280, 256, 4
34154992, 121, 1
34173716, 1, 64
34191400, 49, 36
34210120, 81, 1
34227792, 64, 1
34245480, 64, 9
34263152, 0, 0
34279796, 4, 0
34296432, 441, 0
34315148, 1764, 36
34335952, 196, 81
34355724, 144, 9
34374444, 9, 25
34392124, 100, 25
34411876, 16, 0
34429548, 121, 25
34449308, 4, 16
34467000, 64, 16
34485712, 784, 49
34505464, 484, 49
34525236, 9, 0
34541884, 0, 1
34558512, 169, 49
34578272, 25, 49
34596996, 64, 4
34614684, 196, 0
34633396, 25, 4
34651076, 1, 1
34667728, 169, 1
34686436, 324, 16
34706192, 100, 36
34725956, 49, 0
34743632, 9, 0
34760268, 49, 0
34777952, 9, 1
34794596, 121, 0
34813328, 9, 1
34829952, 4, 0
34846588, 0, 1
34863240, 100, 1
34881956, 361, 4
34900668, 196, 25
34920432, 4, 0
34937084, 0, 0
34953712, 9, 4
34970356, 1, 0
34986992, 100, 4
35005716, 361, 4
35024432, 100, 16
35044196, 4, 4
35060840, 25, 1
35078516, 169, 4
35097232, 196, 9
35115948, 25, 1
35133636, 0, 1
35150276, 0, 0
35166908, 16, 0
35184588, 9, 0
35201240, 9, 1
35217884, 1, 0
35234516, 16, 0
35252196, 36, 1
35269876, 9, 0
35286508, 4, 1
35303152, 1, 0
35319792, 1, 1
35336436, 1, 0
35353080, 16, 1
35370760, 4, 1
35387400, 36, 1
35405084, 144, 9
35423784, 64, 9
35441464, 9, 0
35458116, 9, 1
35474756, 49, 1
35492432, 36, 4
35510108, 81, 9
35527800, 64, 4
35545484, 25, 4
35563152, 49, 1
35580836, 49, 4
35598520, 16, 4
35616200, 1, 0
35632824, 49, 0
35650500, 25, 4
35668196, 9, 1
35684840, 16, 1
35702516, 25, 1
35720200, 121, 4
35738920, 49, 9
35756596, 0, 0
35773232, 16, 0
35790916, 225, 9
35809636, 256, 16
35829392, 121, 4
35848104, 9, 4
35864760, 0, 1
35881392, 1, 0
35898032, 9, 0
35914664, 1, 0
35931324, 1, 0
35947952, 0, 1
35964592, 9, 0
35981228, 1, 1
35997876, 16, 1
36015560, 16, 1
36033224, 0, 0
36049860, 16, 0
36067564, 49, 0
36085228, 121, 1
36103956, 196, 4
36122668, 36, 4
36140356, 1, 0
36156988, 0, 0
36173628, 0, 0
36190276, 4, 0
36206928, 36, 0
36224596, 1, 1
36241232, 1, 0
36257876, 0, 0
36274516, 25, 0
36292196, 25, 1
36309868, 0, 0
36326516, 4, 1
36343152, 25, 0
36360832, 49, 0
36378508, 25, 1
36396196, 0, 0
36412848, 36, 1
36430520, 4, 0
36447152, 36, 1
36464832, 49, 1
36482512, 1, 0
36499156, 9, 0
36515784, 9, 0
36532436, 0, 0
36549080, 0, 0
36565716, 9, 0
36582344, 16, 1
36600036, 36, 1
36617716, 1, 0
36634348, 4, 1
36650984, 16, 0
36668688, 64, 0
36686352, 49, 4
36704028, 25, 4
36721712, 4, 4
36738356, 4, 0
36754996, 16, 0
36772676, 36, 0
36790360, 16, 0
36808036, 4, 0
36824680, 9, 1
36841320, 9, 0
36857960, 49, 0
36875640, 49, 1
36893320, 25, 9
36910992, 49, 1
36928680, 49, 1
36946352, 1, 1
36962988, 4, 0
36979628, 9, 0
36996284, 9, 1
37012912, 4, 1
37029560, 4, 0
37046184, 0, 1
37062840, 1, 1
37079476, 1, 0
37096112, 0, 0
37112756, 4, 0
37129396, 4, 0
37146032, 25, 4
37163716, 49, 1
37181380, 64, 4
37199076, 16, 4
37216752, 16, 1
37234436, 100, 4
37253148, 100, 9
37271888, 49, 4
37289556, 9, 1
37306192, 1, 0
37322836, 1, 0
37339484, 1, 0
37356112, 64, 4
37373800, 169, 9
37392520, 36, 9
37410200, 25, 0
37427876, 169, 0
37446588, 196, 4
37465324, 121, 9
37484028, 36, 4
37501716, 4, 0
37518360, 1, 1
37535000, 0, 0
37551644, 9, 0
37568280, 1, 1
37584916, 0, 0
37601556, 4, 0
37618208, 1, 0
37634836, 64, 0
37652516, 64, 0
37670196, 36, 0
37687864, 25, 0
37705548, 16, 1
37723232, 4, 0
37739884, 1, 0
37756516, 0, 0
37773148, 0, 0
37789800, 16, 0
37807476, 49, 0
37825160, 0, 0
37841796, 36, 4
37859476, 0, 1
37876120, 25, 0
37893784, 9, 0
37910428, 4, 0
37927080, 9, 0
37943720, 25, 1
37961388, 16, 0
37979072, 1, 0
37995720, 1, 1
38012352, 36, 1
38030036, 25, 1
38047704, 1, 1
38064360, 9, 1
38081000, 1, 1
38097632, 1, 0
38114260, 9, 0
38130916, 0, 0
38147556, 1, 0
38164196, 1, 1
38180828, 0, 1
38197488, 4, 1
38214116, 36, 0
38231792, 36, 1
38249468, 4, 0
38266116, 0, 0
38282756, 1, 0
38299396, 9, 1
38316040, 4, 1
38332672, 0, 0
38349316, 9, 0
38365952, 16, 0
38383644, 4, 0
38400272, 9, 1
38416928, 25, 0
38434596, 4, 0
38451244, 1, 0
38467884, 1, 0
38484520, 0, 1
38501156, 4, 0
38517796, 1, 4
38534436, 0, 0
38551076, 4, 0
38567708, 0, 0
38584352, 16, 0
38602032, 0, 0
38618676, 0, 1
38635316, 49, 0
38652996, 4, 1
38669644, 25, 0
38687316, 16, 4
38704992, 4, 0
38721636, 4, 0
38738272, 9, 0
38754908, 0, 0
38771548, 4, 0
38788196, 4, 0
38804852, 0, 1
38821472, 4, 0
38838120, 1, 0
38854760, 81, 0
38872440, 25, 1
38890116, 1, 0
38906752, 16, 1
38924432, 36, 0
38942116, 36, 1
38959792, 49, 4
38977472, 64, 0
38995152, 16, 0
39012832, 16, 0
39030516, 36, 0
39048200, 64, 4
39065884, 16, 1
39083556, 16, 1
39101232, 64, 4
39118924, 36, 1
39136612, 49, 1
39154268, 25, 4
39171952, 4, 1
39188596, 0, 1
39205236, 1, 0
39221868, 9, 0
39238520, 1, 0
39255160, 0, 1
39271792, 1, 0
39288436, 9, 0
39305080, 16, 1
39322764, 0, 1
39339396, 36, 0
39357080, 49, 4
39374752, 0, 4
39391408, 4, 0
39408048, 4, 1
39424672, 25, 1
39442352, 49, 1
39460048, 9, 1
39476672, 16, 0
39494360, 144, 1
39513072, 49, 4
39530764, 9, 4
39547388, 16, 1
39565080, 9, 1
39581716, 16, 1
39599396, 16, 1
39617068, 0, 1
39633716, 4, 0
39650364, 1, 1
39667008, 49, 1
39684672, 36, 1
39702356, 1, 0
39718996, 0, 1
39735636, 9, 1
39752272, 4, 0
39768916, 4, 0
39785552, 9, 1
39802196, 1, 0
39818836, 4, 0
39835468, 16, 1
39853156, 25, 0
39870844, 4, 0
39887480, 9, 1
39904120, 25, 1
39921800, 1, 1
39938436, 1, 0
39955076, 4, 0
39971716, 0, 0
39988364, 1, 0
40005008, 36, 1
40022676, 49, 4
40040352, 4, 4
40057000, 1, 1
40073636, 1, 0
40090268, 1, 0
40106908, 0, 0
40123560, 4, 0
40140204, 1, 0
40156828, 16, 0
40174508, 9, 0
40191160, 9, 0
40207792, 49, 0
40225472, 81, 4
40243140, 25, 0
40260836, 4, 0
40277468, 16, 0
40295144, 9, 4
40311788, 4, 1
40328436, 0, 0
40345068, 9, 0
40361708, 1, 0
40378348, 9, 0
40394992, 36, 0
40412676, 9, 0
40429312, 1, 1
40445940, 4, 0
40462596, 9, 1
40479236, 4, 0
40495872, 1, 0
40512496, 0, 0
40529152, 0, 0
40545788, 16, 1
40563476, 100, 1
40582196, 49, 1
40599884, 1, 0
40616504, 1, 0
40633148, 16, 0
40650840, 0, 0
40667488, 49, 1
40685148, 25, 1
40702832, 0, 0
40719484, 1, 4
40736124, 1, 0
40752748, 1, 0
40769384, 1, 0
40786036, 4, 1
40802680, 9, 0
40819308, 1, 0
40835956, 36, 1
40853636, 36, 4
40871324, 9, 1
40887944, 4, 1
40904592, 9, 1
40921236, 100, 1
40939948, 49, 9
40957640, 1, 0
40974260, 16, 0
40991956, 0, 0
41008588, 9, 0
41025240, 9, 1
41041864, 1, 0
41058516, 9, 0
41075156, 9, 0
41091796, 4, 0
41108424, 0, 1
41125076, 0, 0
41141708, 0, 0
41158360, 0, 0
41174984, 0, 1
41191636, 16, 0
41209308, 16, 0
41226996, 9, 1
41243628, 1, 0
41260276, 9, 1
41276920, 4, 1
41293560, 0, 1
41310192, 0, 1
41326848, 0, 1
41343464, 0, 1
41360108, 4, 0
41376744, 4, 1
41393404, 9, 0
41410024, 16, 0
41427712, 16, 1
41445392, 4, 0
41462040, 4, 0
41478680, 1, 0
41495308, 9, 0
41511956, 25, 9
41529652, 4, 4
41546284, 16, 0
41563948, 9, 0
41580596, 0, 0
41597236, 0, 0
41613880, 0, 0
41630524, 0, 0
41647156, 0, 0
41663796, 0, 0
41680424, 0, 0
41697064, 0, 0
41713728, 1, 0
41730356, 0, 0
41746988, 0, 0
41763632, 0, 1
41780280, 0, 1
41796920, 0, 0
41813560, 0, 0
41830196, 100, 4
41848920, 529, 25
41868688, 169, 25
41888440, 1, 0
41905064, 0, 0
41921716, 4, 0
41938348, 16, 1
41956036, 1, 0
41972672, 1, 1
41989320, 0, 1
42005948, 0, 1
42022584, 0, 0
42039220, 1, 0
42055876, 0, 0
42072516, 0, 0
42089156, 1, 0
42105780, 0, 0
42122436, 0, 0
42139076, 1, 0
42155720, 0, 0
42172340, 0, 0
42189000, 1, 0
42205628, 0, 0
42222276, 0, 0
42238908, 0, 0
42255568, 0, 0
42272196, 0, 0
42288836, 0, 1
42305460, 0, 1
42322112, 0, 0
42338744, 0, 0
42355388, 0, 0
42372020, 0, 0
42388672, 1, 0
42405308, 0, 0
42421948, 0, 1
42438580, 0, 0
42455244, 0, 1
42471876, 0, 0
42488508, 0, 0
42505152, 1, 0
42521804, 1, 0
42538432, 0, 0
42555076, 1, 0
42571700, 4, 0
42588356, 4, 0
42604996, 4, 0
42621640, 1, 0
42638268, 0, 0
42654916, 0, 1
42671560, 0, 0
42688184, 0, 0
42704820, 1, 0
42721476, 0, 0
42738108, 0, 0
42754752, 0, 0
42771392, 1, 0
42788036, 0, 0
42804668, 0, 0
42821308, 0, 0
42837952, 1, 0
42854596, 0, 0
42871228, 0, 0
42887872, 0, 0
42904504, 0, 0
42921156, 0, 0
42937784, 0, 0
42954436, 1, 0
42971068, 0, 0
42987716, 1, 0
43004356, 1, 0
43020988, 0, 0
43037632, 0, 0
43054288, 0, 0
43070912, 1, 0
43087552, 0, 1
43104188, 1, 0
43120832, 0, 0
43137464, 0, 0
43154116, 1, 0
43170740, 0, 0
43187392, 0, 0
43204028, 0, 0
43220668, 0, 1
43237312, 0, 0
43253968, 0, 0
43270596, 0, 0
43287228, 0, 1
43303864, 1, 0
43320512, 1, 0
43337144, 0, 0
43353788, 1, 0
43370420, 0, 0
43387072, 0, 0
43403704, 1, 0
43420344, 0, 0
43436980, 1, 0
43453640, 0, 1
43470268, 0, 0
43486908, 0, 0
43503540, 0, 0
43520196, 4, 0
43536840, 1, 1
43553476, 0, 0
43570104, 0, 4
43586760, 0, 1
43603388, 0, 0
43620036, 1, 0
43636660, 0, 0
43653316, 0, 4
43669952, 0, 0
43686596, 1, 0
43703220, 0, 0
43719876, 0, 0
43736516, 1, 0
43753160, 1, 0
43769792, 1, 0
43786436, 0, 0
43803068, 0, 1
43819704, 0, 0
43836340, 1, 0
43852996, 0, 0
43869632, 0, 0
43886264, 0, 0
43902904, 0, 1
43919552, 0, 0
43936184, 1, 0
43952840, 0, 1
43969468, 0, 0
43986116, 0, 1
44002760, 0, 0
44019396, 0, 0
44036028, 0, 0
44052680, 0, 1
44069308, 1, 0
44085956, 1, 1
44102580, 0, 0
44119232, 0, 0
44135868, 0, 1
44152516, 0, 0
44169148, 1, 0
44185796, 0, 1
44202424, 0, 0
44219064, 0, 0
44235712, 1, 0
44252360, 0, 0
44268992, 0, 0
44285628, 0, 0
44302260, 0, 0
44318912, 0, 0
44335548, 0, 0
44352192, 1, 1
44368824, 0, 0
44385476, 0, 0
44402108, 0, 0
44418748, 0, 0
44435392, 0, 0
44452036, 0, 0
44468668, 0, 0
44485308, 0, 0
44501944, 0, 0
44518596, 0, 0
44535236, 0, 1
44551884, 0, 0
44568504, 0, 0
44585156, 0, 0
44601788, 0, 1
44618440, 0, 1
44635068, 0, 0
44651716, 0, 0
44668348, 0, 0
44684988, 0, 1
44701620, 0, 0
44718272, 0, 0
44734904, 0, 0
44751548, 0, 0
44768180, 0, 0
44784836, 0, 0
44801464, 0, 0
44818108, 0, 1
44834740, 0, 0
44851396, 0, 0
44868028, 0, 0
44884668, 0, 0
44901304, 0, 1
44917956, 0, 0
44934588, 1, 0
44951228, 4, 0
44967864, 16, 0
44985572, 4, 1
45002188, 0, 4
45018828, 1, 0
45035460, 0, 0
45052120, 0, 1
45068756, 0, 0
45085388, 0, 0
45102024, 0, 0
45118676, 0, 0
45135316, 1, 0
45151960, 0, 1
45168584, 0, 0
45185244, 0, 0
45201868, 0, 0
45218516, 1, 0
45235140, 0, 0
45251800, 0, 1
45268432, 0, 0
45285076, 0, 0
45301712, 0, 0
45318356, 0, 0
45334996, 0, 0
45351636, 0, 0
45368260, 0, 0
45384916, 1, 0
45401544, 0, 0
45418184, 0, 0
45434820, 0, 0
45451476, 0, 0
45468112, 0, 0
45484756, 1, 0
45501384, 0, 1
45518036, 0, 0
45534664, 0, 0
45551316, 1, 0
45567952, 1, 0
45584596, 1, 0
45601228, 0, 1
45617876, 0, 0
45634500, 0, 0
45651168, 0, 0
45667800, 0, 0
45684428, 1, 0
45701060, 0, 0
45717716, 0, 0
45734356, 1, 0
45750984, 1, 0
45767620, 0, 0
45784276, 1, 0
45800908, 1, 0
45817560, 0, 0
45834192, 0, 0
45850844, 0, 0
45867464, 0, 0
45884108, 0, 0
45900740, 0, 0
45917392, 0, 0
45934028, 0, 0
45950676, 1, 0
45967304, 0, 0
45983956, 0, 0
46000588, 0, 0
46017228, 0, 0
46033872, 0, 0
46050516, 0, 0
46067156, 1, 0
46083788, 0, 0
46100420, 0, 0
46117076, 0, 0
46133716, 0, 0
46150360, 0, 0
46166980, 0, 0
46183636, 0, 0
46200268, 0, 0
46216908, 1, 0
46233556, 1, 0
46250204, 0, 0
46266840, 0, 0
46283476, 0, 0
46300100, 0, 0
46316756, 0, 0
46333388, 0, 0
46350028, 0, 0
46366664, 0, 0
46383312, 0, 0
46399944, 1, 0
46416588, 1, 0
46433232, 0, 0
46449888, 0, 0
46466504, 0, 0
46483148, 1, 0
46499788, 1, 0
46516448, 0, 1
46533080, 0, 0
46549716, 0, 1
46566340, 0, 0
46582992, 0, 0
46599628, 0, 0
46616268, 0, 0
46632908, 1, 0
46649560, 1, 0
46666188, 0, 0
46682828, 0, 0
46699468, 1, 0
46716112, 1, 0
46732756, 0, 0
46749388, 0, 0
46766020, 0, 0
46782676, 0, 0
46799304, 0, 0
46815948, 0, 0
46832584, 1, 0
46849236, 0, 1
46865864, 0, 0
46882516, 1, 0
46899136, 0, 0
46915792, 4, 0
46932436, 9, 0
46949076, 0, 0
46965704, 1, 0
46982356, 0, 0
46998988, 0, 0
47015628, 1, 0
47032264, 0, 1
47048916, 0, 0
47065548, 0, 0
47082184, 0, 0
47098820, 0, 0
47115472, 0, 0
47132108, 0, 0
47148760, 1, 1
47165392, 0, 0
47182044, 0, 0
47198680, 1, 0
47215304, 0, 0
47231940, 4, 0
47248596, 0, 0
47265240, 1, 1
47281876, 1, 0
47298508, 1, 0
47315156, 0, 0
47331792, 1, 0
47348428, 0, 1
47365060, 0, 0
47381716, 1, 0
47398348, 0, 0
47414996, 1, 0
47431632, 0, 0
47448276, 0, 0
47464904, 0, 0
47481548, 0, 1
47498184, 0, 0
47514844, 1, 0
47531468, 4, 0
47548108, 0, 1
47564740, 0, 0
47581396, 0, 0
47598024, 0, 0
47614668, 0, 0
47631300, 0, 0
47647952, 0, 0
47664588, 0, 1
47681224, 0, 0
47697860, 1, 0
47714512, 0, 0
47731156, 1, 0
47747796, 0, 0
47764432, 0, 0
47781076, 0, 0
47797708, 1, 1
47814356, 1, 0
47830988, 0, 0
47847636, 0, 0
47864268, 0, 0
47880908, 0, 0
47897544, 0, 0
47914188, 0, 0
47930840, 0, 0
47947476, 0, 0
47964100, 1, 1
47980756, 0, 0
47997388, 0, 0
48014028, 0, 0
48030660, 0, 0
48047312, 0, 0
48063948, 0, 0
48080592, 1, 0
48097232, 0, 0
48113876, 0, 0
48130520, 0, 0
48147160, 0, 0
48163784, 0, 1
48180436, 0, 0
48197068, 1, 0
48213704, 1, 0
48230352, 4, 1
48247008, 1, 0
48263628, 0, 0
48280264, 1, 0
48296904, 1, 0
48313568, 0, 0
48330196, 1, 0
48346828, 4, 0
48363460, 0, 0
48380120, 0, 1
48396760, 1, 0
48413396, 0, 0
48430032, 1, 0
48446676, 0, 0
48463316, 1, 0
48479952, 1, 1
48496584, 0, 1
48513244, 0, 0
48529868, 0, 0
48546504, 1, 0
48563144, 0, 1
48579792, 0, 0
48596436, 0, 0
48613076, 0, 0
48629700, 0, 0
48646356, 4, 0
48662988, 4, 0
48679628, 0, 1
48696264, 0, 1
48712924, 0, 0
48729556, 0, 0
48746196, 1, 0
48762820, 4, 0
48779476, 0, 0
48796116, 0, 0
48812760, 1, 0
48829392, 0, 0
48846048, 0, 0
48862676, 0, 0
48879316, 0, 0
48895944, 0, 1
48912600, 0, 0
48929236, 1, 0
48945868, 1, 0
48962500, 1, 0
48979152, 1, 0
48995788, 0, 0
49012424, 0, 0
49029060, 0, 1
49045716, 0, 0
49062348, 0, 0
49078988, 0, 0
49095620, 0, 0
49112276, 0, 0
49128920, 0, 0
49145556, 0, 0
49162180, 0, 0
49178832, 0, 0
49195464, 0, 0
49212108, 1, 0
49228744, 0, 1
49245384, 0, 0
49262024, 0, 0
49278668, 0, 4
49295312, 1, 1
49311956, 1, 0
49328600, 0, 1
49345228, 0, 1
49361860, 0, 0
49378512, 1, 0
49395148, 0, 0
49411792, 0, 0
49428428, 1, 0
49445076, 0, 1
49461708, 0, 0
49478356, 1, 0
49494980, 0, 0
49511640, 0, 1
49528268, 0, 0
49544908, 1, 0
49561548, 1, 0
49578196, 1, 0
49594828, 0, 0
49611468, 0, 0
49628104, 0, 0
49644756, 1, 0
49661388, 0, 0
49678028, 0, 0
49694672, 0, 0
49711324, 0, 0
49727948, 0, 0
49744588, 0, 0
49761220, 0, 0
49777880, 1, 0
49794508, 0, 0
49811160, 1, 1
49827784, 0, 1
49844436, 0, 0
49861068, 0, 0
49877720, 1, 0
49894352, 0, 0
49911000, 0, 0
49927636, 0, 0
49944264, 0, 0
49960900, 1, 0
49977560, 0, 1
49994188, 0, 0
50010836, 0, 0
50027472, 0, 0
50044128, 0, 1
50060756, 0, 0
50077396, 1, 0
50094036, 1, 0
50110688, 0, 0
50127320, 1, 1
50143948, 0, 0
50160580, 1, 0
50177232, 0, 0
50193868, 1, 0
50210520, 0, 0
50227152, 0, 0
50243796, 0, 1
50260428, 0, 0
50277068, 0, 0
50293708, 1, 0
50310368, 0, 1
50326984, 0, 0
50343628, 1, 0
50360268, 1, 0
50376916, 4, 0
50393548, 0, 0
50410188, 1, 0
50426824, 0, 0
50443476, 0, 0
50460116, 4, 0
50476756, 0, 0
50493380, 0, 0
50510036, 0, 0
50526676, 0, 0
50543320, 0, 0
50559936, 0, 0
50576596, 1, 0
50593236, 0, 0
50609868, 0, 0
50626508, 4, 0
50643168, 4, 0
50659796, 0, 0
50676428, 0, 0
50693060, 0, 0
50709716, 0, 0
50726356, 0, 0
50742984, 0, 0
50759624, 4, 0
50776276, 4, 1
50792912, 0, 1
50809556, 0, 0
50826176, 1, 0
50842836, 1, 0
50859480, 1, 0
50876120, 0, 0
50892740, 0, 0
50909392, 4, 0
50926036, 1, 0
50942676, 0, 0
50959300, 0, 0
50975956, 0, 0
50992588, 0, 0
51009228, 0, 0
51025860, 0, 0
51042516, 4, 0
51059160, 1, 0
51075788, 0, 1
51092420, 0, 1
51109076, 0, 0
51125708, 1, 0
51142348, 0, 0
51158980, 0, 0
51175632, 0, 0
51192272, 0, 1
51208920, 0, 0
51225540, 0, 0
51242200, 1, 0
51258824, 0, 0
51275472, 0, 0
51292108, 0, 0
51308756, 1, 0
51325388, 0, 0
51342028, 0, 0
51358664, 0, 0
51375316, 0, 0
51391948, 0, 0
51408600, 0, 0
51425224, 0, 1
51441880, 1, 0
51458516, 1, 0
51475148, 0, 0
51491780, 0, 0
51508436, 1, 0
51525076, 0, 1
51541720, 0, 0
51558352, 0, 0
51575004, 1, 0
51591624, 0, 0
51608264, 0, 0
51624900, 0, 0
51641556, 1, 0
51658192, 1, 0
51674828, 0, 0
51691464, 0, 0
51708120, 0, 0
51724760, 0, 0
51741388, 1, 0
51758032, 9, 0
51774676, 9, 0
51791316, 4, 0
51807952, 0, 1
51824592, 1, 0
51841236, 0, 0
51857864, 1, 0
51874512, 4, 1
51891144, 0, 0
51907808, 1, 1
51924436, 0, 0
51941076, 1, 1
51957708, 0, 16
51975408, 1, 1
51992028, 0, 0
52008680, 0, 0
52025312, 0, 0
52041956, 0, 0
52058592, 0, 1
52075240, 0, 1
52091872, 0, 1
52108516, 1, 4
52125148, 1, 0
52141796, 1, 0
52158424, 4, 0
52175076, 9, 0
52191716, 1, 0
52208348, 0, 0
52224980, 0, 0
52241636, 1, 0
52258268, 4, 0
52274908, 4, 0
52291540, 4, 0
52308196, 1, 0
52324824, 4, 0
52341468, 4, 0
52358100, 1, 0
52374760, 0, 1
52391388, 0, 0
52408028, 0, 0
52424668, 1, 0
52441320, 9, 1
52457948, 1, 1
52474592, 0, 1
52491232, 0, 0
52507884, 0, 0
52524508, 0, 0
52541160, 0, 0
52557792, 0, 0
52574444, 0, 0
52591080, 0, 0
52607716, 0, 0
52624340, 0, 0
52640996, 0, 0
52657628, 0, 0
52674268, 0, 0
52690912, 1, 0
52707556, 1, 0
52724200, 0, 0
52740828, 0, 0
52757460, 0, 0
52774112, 1, 0
52790744, 1, 0
52807400, 1, 1
52824024, 1, 1
52840676, 0, 0
52857308, 0, 1
52873956, 1, 0
52890588, 1, 0
52907236, 1, 0
52923880, 1, 0
52940508, 0, 0
52957144, 0, 1
52973796, 0, 0
52990428, 0, 0
53007080, 1, 1
53023704, 1, 1
53040356, 0, 1
53056988, 0, 0
53073624, 1, 0
53090260, 1, 0
53106916, 1, 0
53123548, 0, 0
53140192, 0, 0
53156820, 0, 0
53173472, 0, 0
53190120, 0, 1
53206748, 0, 0
53223380, 4, 0
53240044, 1, 0
53256676, 0, 0
53273304, 0, 0
53289940, 0, 0
53306596, 0, 0
53323228, 0, 0
53339868, 0, 1
53356512, 0, 0
53373152, 0, 0
53389788, 0, 0
53406424, 0, 0
53423060, 0, 1
53439716, 0, 0
53456348, 0, 0
53472988, 0, 0
53489632, 0, 0
53506276, 1, 0
53522908, 0, 0
53539544, 0, 0
53556176, 0, 0
53572836, 0, 0
53589464, 1, 0
53606108, 0, 0
53622744, 0, 1
53639396, 0, 0
53656036, 0, 0
53672668, 0, 0
53689300, 0, 0
53705956, 4, 0
53722596, 1, 0
53739236, 1, 0
53755872, 4, 0
53772528, 0, 1
53789160, 0, 0
53805796, 1, 0
53822432, 1, 0
53839076, 0, 0
53855716, 1, 1
53872344, 0, 0
53888980, 1, 0
53905636, 0, 0
53922268, 0, 0
53938904, 1, 0
53955544, 1, 0
53972196, 0, 0
53988836, 1, 0
54005468, 1, 0
54022104, 1, 0
54038752, 0, 1
54055384, 0, 0
54072028, 1, 0
54088660, 0, 0
54105316, 1, 0
54121956, 0, 0
54138584, 0, 0
54155216, 0, 0
54171876, 0, 0
54188520, 0, 0
54205148, 1, 0
54221780, 0, 0
54238436, 0, 0
54255080, 1, 0
54271708, 0, 0
54288352, 0, 0
54304996, 1, 0
54321628, 0, 0
54338268, 0, 0
54354908, 1, 0
54371556, 0, 0
54388188, 1, 1
54404836, 0, 0
54421464, 0, 0
54438112, 0, 0
54454744, 0, 0
54471388, 0, 0
54488032, 0, 0
54504676, 0, 0
54521308, 0, 0
54537948, 1, 0
54554592, 1, 1
54571236, 0, 0
54587876, 0, 0
54604512, 0, 1
54621156, 1, 1
54637796, 1, 0
54654428, 0, 0
54671076, 1, 1
54687708, 0, 0
54704356, 0, 1
54720988, 0, 0
54737628, 0, 0
54754260, 0, 0
54770912, 0, 0
54787552, 4, 1
54804196, 4, 0
54820828, 1, 0
54837476, 1, 0
54854108, 0, 0
54870752, 0, 0
54887384, 0, 0
54904036, 0, 0
54920672, 0, 0
54937320, 1, 0
54953948, 0, 0
54970608, 1, 0
54987236, 0, 0
55003868, 0, 1
55020516, 0, 1
55037152, 0, 0
55053788, 0, 0
55070424, 0, 0
55087060, 0, 0
55103716, 1, 0
55120348, 1, 0
55137000, 1, 0
55153632, 0, 0
55170272, 1, 0
55186912, 0, 1
55203548, 0, 1
55220192, 0, 0
55236836, 0, 0
55253472, 1, 0
55270116, 4, 0
55286748, 1, 0
55303400, 0, 0
55320036, 0, 0
55336672, 0, 1
55353304, 0, 0
55369956, 0, 0
55386584, 0, 0
55403240, 0, 0
55419864, 0, 0
55436516, 0, 0
55453152, 0, 0
55469796, 0, 0
55486424, 0, 0
55503072, 0, 0
55519708, 1, 1
55536348, 1, 0
55552980, 0, 0
55569648, 1, 1
55586276, 0, 0
55602904, 0, 0
55619544, 0, 0
55636196, 0, 0
55652828, 0, 0
55669468, 1, 0
55686112, 1, 0
55702756, 1, 0
55719388, 0, 0
55736028, 0, 0
55752660, 0, 0
55769316, 0, 0
55785948, 0, 0
55802588, 0, 0
55819216, 0, 0
55835876, 4, 0
55852516, 4, 0
55869148, 1, 0
55885792, 0, 0
55902436, 0, 0
55919060, 0, 0
55935708, 1, 0
55952340, 0, 0
55968996, 1, 0
55985640, 4, 1
56002276, 0, 0
56018900, 0, 0
56035556, 0, 1
56052184, 0, 0
56068832, 1, 0
56085460, 0, 1
56102104, 0, 0
56118748, 4, 0
56135392, 4, 1
56152020, 0, 0
56168672, 4, 0
56185320, 0, 0
56201960, 1, 0
56218592, 1, 0
56235232, 1, 0
56251864, 0, 0
56268516, 1, 0
56285152, 0, 0
56301800, 0, 1
56318424, 0, 0
56335064, 0, 0
56351704, 0, 0
56368364, 1, 1
56384996, 1, 0
56401628, 0, 0
56418256, 1, 0
56434912, 0, 0
56451548, 0, 0
56468188, 0, 0
56484824, 0, 0
56501476, 0, 0
56518108, 0, 0
56534756, 1, 0
56551388, 1, 0
56568040, 16, 1
56585720, 1, 4
56602360, 1, 1
56618988, 9, 0
56635636, 9, 0
56652280, 1, 0
56668920, 0, 0
56685552, 1, 0
56702196, 0, 1
56718828, 0, 0
56735468, 9, 1
56752104, 1, 1
56768760, 0, 0
56785388, 1, 0
56802032, 0, 0
56818668, 4, 0
56835316, 1, 0
56851948, 0, 0
56868600, 1, 0
56885228, 0, 0
56901872, 0, 0
56918508, 0, 0
56935148, 1, 0
56951788, 1, 0
56968444, 1, 0
56985068, 4, 0
57001708, 0, 0
57018340, 0, 0
57034996, 1, 0
57051628, 1, 0
57068284, 0, 1
57084912, 0, 0
57101556, 0, 0
57118188, 0, 0
57134824, 0, 0
57151460, 0, 0
57168116, 0, 0
57184752, 0, 0
57201388, 0, 0
57218020, 1, 0
57234676, 0, 0
57251308, 0, 1
57267956, 0, 1
57284580, 0, 0
57301236, 0, 0
57317868, 0, 0
57334508, 1, 0
57351144, 16, 0
57368844, 16, 0
57386524, 4, 0
57403144, 0, 0
57419804, 1, 0
57436436, 0, 1
57453084, 1, 0
57469716, 1, 0
57486356, 0, 0
57502996, 0, 0
57519636, 0, 0
57536268, 4, 0
57552916, 1, 1
57569556, 1, 0
57586208, 4, 0
57602836, 1, 0
57619484, 0, 0
57636116, 1, 0
57652764, 1, 0
57669392, 0, 0
57686044, 0, 0
57702672, 0, 0
57719316, 0, 1
57735948, 0, 0
57752608, 1, 0
57769244, 0, 0
57785888, 0, 0
57802508, 0, 0
57819164, 1, 0
57835796, 1, 0
57852448, 1, 0
57869068, 0, 0
57885716, 0, 0
57902356, 0, 0
57919000, 4, 1
57935636, 1, 1
57952280, 0, 0
57968924, 1, 1
57985568, 1, 0
58002192, 1, 0
58018836, 1, 0
58035484, 0, 0
58052120, 0, 1
58068760, 1, 1
58085400, 4, 0
58102036, 36, 1
58119728, 49, 4
58137388, 9, 4
58154036, 1, 1
58170680, 0, 1
58187320, 1, 0
58203960, 1, 1
58220596, 4, 0
58237240, 4, 0
58253868, 0, 0
58270508, 4, 0
58287160, 16, 0
58304836, 0, 0
58321476, 1, 1
58338108, 0, 0
58354756, 0, 1
58371408, 0, 0
58388036, 4, 1
58404668, 16, 4
58422368, 1, 4
58439008, 0, 1
58455624, 0, 0
58472264, 0, 0
58488920, 4, 0
58505556, 4, 4
58522200, 9, 4
58538836, 1, 0
58555476, 0, 1
58572112, 0, 0
58588748, 1, 0
58605392, 0, 1
58622036, 0, 0
58638668, 0, 0
58655304, 0, 0
58671948, 0, 0
58688604, 1, 0
58705244, 4, 0
58721872, 1, 0
58738504, 0, 0
58755160, 4, 1
58771796, 25, 1
58789480, 16, 4
58807160, 0, 1
58823808, 1, 0
58840440, 1, 0
58857076, 1, 0
58873716, 0, 0
58890360, 1, 0
58907000, 4, 0
58923628, 25, 0
58941312, 9, 1
58957956, 4, 0
58974596, 1, 0
58991240, 0, 0
59007880, 0, 0
59024524, 1, 0
59041156, 0, 0
59057788, 0, 0
59074428, 0, 1
59091076, 0, 0
59107712, 4, 0
59124348, 4, 0
59140988, 1, 0
59157636, 1, 0
59174272, 4, 0
59190908, 1, 0
59207560, 1, 0
59224204, 0, 0
59240836, 0, 0
59257480, 0, 1
59274108, 1, 0
59290756, 1, 0
59307400, 4, 1
59324040, 1, 4
59340672, 0, 0
59357316, 1, 0
59373960, 1, 0
59390588, 1, 0
59407228, 9, 0
59423880, 1, 0
59440508, 0, 0
59457148, 16, 0
59474840, 49, 1
59492516, 25, 1
59510188, 9, 0
59526840, 0, 1
59543472, 0, 0
59560112, 0, 0
59576756, 1, 0
59593384, 1, 0
59610032, 16, 0
59627712, 9, 0
59644348, 9, 0
59660988, 4, 0
59677620, 0, 0
59694280, 9, 1
59710920, 9, 1
59727560, 1, 0
59744192, 0, 0
59760840, 9, 0
59777468, 16, 0
59795144, 25, 0
59812824, 16, 0
59830512, 4, 0
59847144, 0, 0
59863796, 1, 0
59880420, 0, 0
59897076, 0, 1
59913704, 0, 0
59930344, 4, 0
59946984, 9, 0
59963636, 0, 0
59980264, 16, 0
59997952, 9, 0
60014584, 9, 0
60031240, 4, 1
60047872, 0, 1
60064512, 1, 0
60081144, 4, 0
60097796, 1, 0
60114432, 0, 0
60131076, 1, 0
60147700, 0, 0
60164356, 16, 0
60182048, 1, 0
60198668, 4, 0
60215316, 16, 0
60232992, 0, 0
60249640, 81, 4
60267312, 36, 4
60285004, 1, 0
60301640, 0, 0
60318276, 4, 0
60334908, 9, 1
60351556, 4, 0
60368200, 1, 1
60384832, 0, 0
60401468, 0, 0
60418116, 0, 0
60434756, 0, 0
60451392, 1, 0
60468032, 0, 1
60484676, 0, 0
60501316, 0, 0
60517952, 0, 0
60534588, 0, 0
60551244, 4, 0
60567876, 0, 0
60584508, 0, 0
60601152, 0, 1
60617800, 1, 1
60634436, 9, 0
60651064, 4, 0
60667712, 1, 0
60684356, 0, 1
60700996, 1, 0
60717628, 4, 0
60734276, 1, 0
60750916, 0, 0
60767552, 9, 0
60784188, 16, 0
60801876, 1, 0
60818524, 0, 0
60835156, 0, 0
60851784, 0, 0
60868428, 0, 1
60885076, 0, 0
60901724, 0, 0
60918356, 0, 0
60934996, 4, 0
60951636, 25, 1
60969316, 25, 1
60986996, 1, 0
61003632, 0, 0
61020276, 4, 1
61036920, 25, 0
61054592, 36, 1
61072272, 9, 1
61088916, 4, 0
61105568, 4, 1
61122188, 0, 0
61138828, 1, 0
61155480, 1, 0
61172116, 0, 0
61188744, 0, 0
61205388, 4, 0
61222040, 16, 1
61239716, 16, 0
61257396, 9, 0
61274028, 1, 0
61290676, 1, 0
61307312, 0, 0
61323960, 9, 1
61340580, 16, 1
61358280, 25, 0
61375952, 16, 1
61393628, 9, 1
61410264, 4, 0
61426916, 0, 0
61443556, 0, 0
61460200, 0, 0
61476832, 0, 0
61493488, 0, 0
61510116, 1, 0
61526752, 9, 1
61543392, 4, 4
61560036, 1, 1
61576668, 0, 0
61593312, 0, 1
61609948, 1, 1
61626604, 1, 0
61643240, 0, 0
61659872, 0, 0
61676512, 1, 0
61693160, 1, 1
61709788, 1, 0
61726428, 1, 0
61743060, 0, 1
61759716, 0, 1
61776348, 0, 0
61792988, 1, 0
61809620, 0, 0
61826276, 1, 0
61842916, 4, 1
61859552, 9, 1
61876188, 1, 0
61892836, 0, 0
61909464, 0, 0
61926116, 1, 0
61942752, 1, 0
61959408, 9, 0
61976040, 16, 1
61993708, 4, 1
62010352, 16, 0
62028044, 144, 1
62046764, 49, 16
62065476, 0, 0
62082112, 9, 1
62098756, 16, 1
62116428, 9, 1
62133072, 9, 0
62149716, 0, 1
62166360, 49, 9
62184040, 169, 1
62202748, 81, 1
62220436, 9, 0
62237080, 25, 0
62254744, 196, 64
62274508, 81, 121
62294284, 1, 36
62311964, 16, 9
62329628, 49, 9
62347316, 81, 1
62365000, 4, 0
62381636, 9, 4
62398276, 9, 0
62414924, 0, 9
62431556, 9, 49
62449236, 9, 16
62466904, 36, 36
62485648, 81, 289
62505404, 25, 121
62525156, 4, 36
62542824, 25, 1
62560528, 9, 324
62579244, 1, 441
62597960, 1, 64
62615640, 36, 0
62633320, 81, 121
62653060, 81, 2209
62673860, 121, 3025
62695716, 144, 289
62716516, 64, 0
62734204, 4, 36
62751876, 9, 64
62769556, 4, 121
62788272, 36, 121
62808016, 9, 2304
62827792, 16, 1296
62848604, 36, 361
62868352, 0, 225
62887076, 4, 49
62904744, 25, 25
62923476, 0, 289
62942188, 64, 225
62961956, 81, 121
62981704, 0, 441
63000444, 144, 1
63019160, 4, 361
63037876, 196, 225
63058676, 169, 25
63078444, 81, 16
63097152, 36, 289
63116904, 0, 144
63135636, 1, 16
63153328, 144, 0
63172028, 64, 0
63189704, 25, 400
63209468, 25, 324
63229248, 4, 4
63245868, 4, 0
63262520, 9, 0
63279168, 16, 81
63297880, 9, 49
63315548, 16, 81
63334280, 4, 100
63352992, 0, 16
63370672, 16, 16
63389396, 49, 36
63408108, 4, 121
63426844, 0, 81
63444528, 25, 169
63464276, 36, 100
63484036, 0, 49
63501724, 9, 64
63519396, 0, 9
63536036, 16, 4
63553720, 36, 1
63571388, 0, 25
63589080, 1, 16
63606744, 0, 16
63624436, 1, 25
63642112, 4, 1
63658756, 9, 0
63675388, 9, 4
63692044, 9, 9
63708672, 16, 9
63726356, 4, 0
63743000, 0, 1
63759640, 0, 9
63776284, 9, 1
63792920, 16, 4
63810600, 36, 16
63829324, 64, 9
63847000, 16, 81
63865704, 0, 49
63883400, 4, 1
63900040, 16, 0
63917704, 0, 225
63936436, 1, 529
63955156, 1, 400
63973880, 81, 225
63993636, 169, 16
64013408, 16, 25
64032124, 9, 16
64049788, 1, 1
64066428, 0, 4
64083080, 1, 25
64100760, 25, 0
64118436, 16, 0
64136112, 1, 121
64154836, 0, 361
64173560, 4, 484
64192280, 25, 196
64212040, 25, 1
64229716, 1, 121
64248428, 4, 169
64267148, 25, 1
64284836, 36, 49
64303548, 36, 4
64321236, 49, 256
64341004, 36, 0
64358672, 16, 784
64378436, 121, 576
64399228, 169, 4
64417952, 9, 256
64436680, 49, 225
64456440, 16, 225
64476200, 16, 361
64495964, 49, 16
64514676, 4, 25
64532356, 4, 49
64550036, 1, 64
64567716, 0, 0
64584352, 1, 81
64602024, 4, 361
64620764, 9, 676
64639476, 4, 49
64657160, 16, 25
64675884, 4, 9
64692524, 0, 1
64709164, 0, 196
64727872, 49, 64
64746600, 81, 16
64765320, 0, 36
64782996, 1, 9
64799632, 25, 4
64817308, 0, 16
64834984, 0, 100
64853720, 9, 289
64872416, 0, 100
64891156, 16, 9
64908844, 4, 9
64925476, 25, 25
64944196, 81, 16
64962916, 49, 9
64980600, 0, 1
64997236, 16, 0
65014920, 0, 49
65032604, 25, 16
65051320, 4, 49
65068992, 0, 64
65086688, 1, 49
65104348, 0, 121
65123068, 0, 0
65139716, 4, 100
65158444, 9, 64
65176120, 9, 25
65193796, 0, 1
65210440, 0, 25
65228120, 0, 0
65244756, 4, 4
65261396, 4, 25
65279072, 0, 0
65295708, 4, 0
65312344, 0, 16
65330032, 1, 9
65346676, 4, 0
65363324, 1, 25
65381000, 1, 1
65397632, 0, 36
65415312, 1, 64
65433004, 4, 169
65451716, 4, 25
65469396, 9, 0
65486036, 0, 1
65502668, 16, 9
65520352, 16, 0
65538028, 1, 1
65554672, 0, 4
65571304, 0, 4
65587948, 0, 1
65604588, 0, 4
65621244, 9, 1
65637876, 81, 4
65655548, 81, 0
65673244, 1, 9
65689884, 0, 36
65707568, 4, 81
65725236, 4, 49
65742924, 0, 81
65760596, 25, 121
65780360, 9, 1
65797004, 4, 144
65815716, 16, 4
65833392, 4, 0
65850040, 0, 0
65866660, 0, 36
65884364, 1, 0
65900996, 1, 25
65918676, 1, 16
65936352, 4, 144
65955084, 1, 81
65972760, 0, 36
65990424, 0, 64
66008116, 36, 1
66025796, 9, 4
66042436, 0, 4
66059068, 0, 16
66076756, 0, 16
66094436, 1, 1
66111080, 9, 9
66127716, 16, 25
66146436, 4, 16
66164120, 0, 49
66181796, 4, 16
66199460, 4, 36
66217164, 1, 25
66234824, 9, 9
66251476, 16, 25
66270188, 4, 9
66286836, 0, 0
66303480, 1, 9
66320108, 36, 0
66337796, 9, 9
66354432, 0, 4
66371076, 4, 64
66388756, 9, 25
66406432, 16, 1
66424128, 1, 36
66441796, 9, 16
66459476, 16, 1
66477156, 9, 0
66493800, 1, 1
66510428, 25, 0
66528112, 16, 1
66545804, 4, 1
66562444, 36, 9
66580120, 4, 0
66596752, 16, 0
66614440, 9, 16
66632116, 0, 25
66649796, 0, 9
66666420, 0, 36
66684124, 1, 25
66701788, 4, 16
66719484, 4, 4
66736116, 9, 4
66752760, 4, 9
66769396, 0, 0
66786036, 1, 4
66802668, 1, 0
66819316, 0, 25
66836996, 1, 36
66854676, 4, 9
66871312, 0, 4
66887952, 0, 1
66904604, 0, 4
66921236, 0, 9
66937876, 4, 9
66954528, 1, 9
66971156, 0, 4
66987792, 0, 4
67004440, 0, 1
67021080, 0, 1
67037716, 16, 1
67055392, 16, 4
67073088, 1, 1
67089720, 1, 9
67106356, 1, 0
67123000, 1, 25
67140684, 1, 9
67157316, 0, 0
67173948, 0, 0
67190588, 0, 1
67207240, 4, 0
67223884, 4, 0
67240520, 0, 16
67258200, 1, 36
67275884, 9, 25
67293556, 0, 64
67311236, 0, 81
67328916, 9, 4
67345556, 9, 0
67362192, 0, 0
67378828, 0, 9
67395480, 1, 9
67412116, 0, 16
67429796, 0, 16
67447468, 0, 4
67464108, 1, 1
67480756, 0, 4
67497392, 0, 0
67514036, 1, 16
67531708, 1, 144
67550436, 16, 100
67570212, 16, 4
67587872, 1, 9
67604524, 0, 1
67621172, 0, 4
67637800, 0, 4
67654432, 0, 9
67671088, 1, 64
67688756, 16, 25
67707480, 49, 9
67725160, 9, 16
67742836, 9, 16
67760524, 4, 0
67777172, 1, 9
67793800, 1, 4
67810456, 1, 1
67827092, 36, 1
67844748, 49, 16
67863468, 4, 36
67881152, 4, 81
67898836, 1, 144
67917548, 36, 100
67937316, 36, 36
67956044, 1, 0
67972672, 0, 1
67989308, 0, 4
68005956, 4, 9
68022592, 1, 0
68039236, 0, 1
68055876, 1, 0
68072524, 0, 0
68089156, 0, 0
68105796, 1, 1
68122428, 0, 1
68139080, 1, 16
68156756, 4, 0
68173396, 1, 25
68191068, 1, 36
68208768, 1, 16
68226440, 1, 9
68243068, 4, 0
68259704, 0, 9
68276364, 0, 81
68294044, 0, 4
68310680, 0, 9
68327308, 0, 16
68344996, 0, 64
68362672, 4, 256
68381384, 36, 289
68401160, 49, 169
68420924, 1, 64
68438600, 0, 16
68456272, 0, 9
68472916, 4, 4
68489560, 0, 16
68507232, 9, 36
68524912, 1, 324
68543632, 9, 169
68562352, 9, 121
68581072, 16, 36
68599776, 4, 0
68616444, 0, 16
68634112, 4, 100
68652836, 0, 169
68671556, 0, 49
68689236, 0, 49
68706908, 4, 169
68725640, 4, 25
68743324, 4, 1
68759964, 4, 0
68776588, 1, 4
68793232, 0, 4
68809888, 1, 9
68826524, 0, 9
68843152, 4, 4
68859800, 4, 1
68876436, 0, 1
68893084, 9, 49
68910760, 1, 49
68928432, 9, 1
68945084, 0, 196
68963796, 9, 225
68982516, 25, 100
69002284, 36, 9
69019964, 9, 1
69036592, 0, 0
69053244, 0, 9
69069892, 4, 1
69086516, 0, 9
69103156, 0, 25
69120836, 4, 144
69139568, 1, 25
69157248, 1, 1
69173876, 4, 25
69191564, 4, 16
69209252, 1, 1
69225888, 1, 4
69242512, 0, 4
69259156, 4, 0
69275800, 0, 9
69292436, 0, 4
69309080, 0, 1
69325712, 1, 0
69342360, 0, 9
69358996, 0, 0
69375640, 1, 1
69392284, 9, 4
69408932, 4, 25
69426608, 4, 25
69444272, 9, 9
69460904, 4, 9
69477560, 0, 16
69495228, 0, 0
69511880, 1, 36
69529548, 1, 16
69547236, 1, 9
69563868, 1, 4
69580508, 0, 1
69597140, 0, 0
69613800, 1, 1
69630440, 1, 1
69647072, 0, 4
69663704, 0, 0
69680364, 9, 16
69698036, 0, 81
69715716, 16, 16
69734456, 4, 1
69751088, 1, 1
69767724, 1, 25
69785388, 4, 25
69803084, 0, 25
69820764, 1, 49
69838436, 9, 4
69855080, 9, 64
69872768, 0, 9
69889392, 0, 81
69907076, 9, 16
69924744, 4, 16
69942444, 0, 0
69959076, 0, 25
69976752, 0, 0
69993392, 4, 196
70012124, 100, 196
70032928, 121, 4
70051628, 0, 49
70069320, 25, 1
70086992, 1, 256
70105712, 16, 361
70125472, 64, 100
70145252, 49, 16
70163948, 16, 25
70182676, 49, 100
70202444, 25, 16
70221168, 1, 4
70237788, 4, 1
70254432, 36, 16
70273160, 36, 49
70291876, 25, 121
70311640, 9, 100
70330348, 0, 36
70348048, 4, 25
70365716, 25, 64
70384440, 4, 9
70401084, 9, 49
70418760, 9, 256
70437476, 16, 441
70457224, 9, 144
70475952, 4, 16
70493632, 1, 25
70511312, 1, 1
70527948, 0, 25
70545644, 0, 0
70562276, 4, 16
70579948, 4, 1
70596592, 1, 9
70613244, 1, 9
70629876, 0, 9
70646520, 1, 196
70665240, 4, 121
70683968, 49, 49
70702672, 16, 81
70721400, 9, 16
70739072, 9, 0
70755716, 4, 1
70772356, 1, 9
70788992, 0, 9
70805648, 9, 4
70822284, 4, 1
70838916, 0, 1
70855548, 0, 4
70872196, 0, 36
70889876, 1, 25
70907544, 1, 16
70925224, 0, 9
70941880, 0, 1
70958508, 0, 16
70976196, 1, 36
70993872, 1, 1
71010516, 0, 36
71028196, 0, 4
71044836, 4, 16
71062508, 1, 9
71079156, 1, 0
71095796, 9, 25
71113476, 0, 81
71131164, 4, 4
71147800, 1, 16
71165480, 1, 4
71182116, 1, 144
71200836, 0, 169
71219564, 0, 121
71238280, 25, 16
71256992, 25, 4
71274672, 0, 0
71291312, 1, 0
71307956, 16, 0
71325632, 36, 0
71343328, 4, 1
71359948, 0, 0
71376588, 0, 4
71393228, 0, 0
71409884, 1, 16
71427548, 0, 16
71445236, 9, 4
71461868, 4, 9
71478524, 0, 4
71495164, 4, 1
71511796, 4, 0
71528420, 0, 1
71545080, 0, 1
71561708, 0, 0
71578352, 0, 0
71594992, 0, 144
71613724, 0, 324
71632436, 9, 25
71650120, 4, 4
71666760, 0, 1
71683396, 1, 1
71700028, 0, 0
71716672, 9, 4
71733324, 4, 64
71751004, 0, 225
71769712, 1, 25
71787392, 1, 0
71804036, 4, 4
71820676, 0, 0
71837312, 1, 4
71853956, 16, 4
71871636, 4, 36
71889324, 1, 9
71905960, 4, 4
71922588, 0, 16
71940276, 4, 25
71957956, 0, 16
71975644, 1, 121
71994352, 25, 100
72014120, 16, 25
72032832, 0, 196
72051556, 64, 49
72070280, 144, 1
72088996, 49, 0
72106664, 0, 4
72123308, 9, 25
72140996, 64, 9
72158668, 121, 0
72177396, 81, 0
72195064, 36, 36
72213804, 0, 196
72232512, 169, 49
72252276, 196, 1
72271000, 16, 4
72288676, 0, 4
72305320, 36, 25
72324020, 144, 64
72343796, 36, 9
72361472, 121, 0
72380188, 625, 25
72399960, 324, 100
72420764, 25, 16
72439468, 0, 0
72456100, 1, 0
72472760, 0, 1
72489388, 16, 9
72507084, 4, 1
72523708, 100, 1
72542436, 16, 1
72560116, 9, 0
72576752, 25, 4
72594428, 64, 0
72612124, 484, 25
72631876, 289, 49
72651636, 16, 16
72670364, 81, 1
72688048, 25, 4
72705716, 324, 1
72724432, 121, 4
72743152, 25, 16
72761876, 9, 0
72778512, 36, 0
72796208, 100, 4
72814928, 36, 4
72832600, 36, 1
72850280, 1, 1
72866920, 16, 1
72884596, 36, 0
72902276, 169, 16
72922028, 25, 4
72939716, 9, 0
72956364, 1, 4
72973000, 1, 1
72989628, 25, 4
73007324, 1, 9
73023952, 16, 9
73041632, 121, 1
73060360, 169, 1
73079084, 64, 16
73097804, 25, 9
73115472, 121, 9
73134204, 100, 16
73153960, 144, 4
73172676, 0, 9
73189312, 64, 1
73207004, 0, 4
73223636, 49, 0
73241312, 144, 1
73260028, 225, 4
73278752, 25, 4
73296436, 4, 1
73313080, 1, 4
73329728, 16, 4
73347404, 100, 9
73366124, 49, 1
73383792, 0, 1
73400440, 0, 0
73417080, 0, 1
73433716, 0, 0
73450352, 0, 0
73466996, 64, 1
73484680, 81, 1
73502352, 16, 1
73520032, 1, 1
73536680, 81, 4
73554360, 16, 0
73572028, 1, 4
73588664, 25, 0
73606368, 16, 1
73624036, 0, 4
73640676, 16, 1
73658348, 9, 0
73674996, 0, 1
73691632, 64, 1
73709316, 225, 9
73728036, 289, 49
73747804, 121, 16
73767548, 25, 4
73785236, 9, 0
73801876, 9, 1
73818524, 16, 1
73836196, 169, 9
73854908, 36, 9
73872600, 100, 1
73891308, 256, 25
73911068, 25, 25
73929804, 36, 0
73947480, 100, 4
73966192, 81, 4
73983880, 1, 1
74000516, 256, 1
74019236, 225, 36
74039008, 1, 16
74056660, 121, 1
74075396, 64, 9
74093088, 1, 0
74109708, 4, 25
74127392, 4, 16
74145076, 49, 9
74162748, 144, 25
74182508, 144, 16
74202280, 121, 16
74222040, 4, 9
74238668, 16, 0
74256348, 25, 1
74274044, 1, 0
74290668, 4, 0
74307316, 36, 1
74324984, 9, 1
74341644, 4, 0
74358280, 4, 0
74374916, 4, 0
74391540, 0, 0
74408196, 16, 1
74425888, 25, 1
74443556, 4, 4
74460196, 36, 4
74477876, 9, 0
74494516, 1, 0
74511148, 4, 0
74527796, 4, 0
74544440, 16, 1
74562108, 9, 4
74578756, 9, 0
74595404, 1, 0
74612048, 1, 1
74628676, 16, 0
74646360, 9, 1
74663004, 4, 0
74679652, 1, 1
74696276, 0, 0
74712916, 0, 1
74729556, 0, 0
74746196, 1, 1
74762828, 0, 0
74779480, 36, 4
74797164, 25, 1
74814836, 0, 0
74831480, 9, 0
74848108, 1, 0
74864768, 1, 0
74881400, 0, 1
74898036, 16, 0
74915716, 9, 0
74932356, 1, 1
74948996, 0, 1
74965624, 4, 0
74982276, 1, 0
74998928, 0, 4
75015556, 0, 4
75032192, 1, 0
75048828, 1, 0
75065480, 9, 1
75082116, 36, 1
75099796, 1, 0
75116440, 4, 1
75133076, 16, 0
75150760, 16, 0
75168436, 1, 1
75185072, 1, 1
75201716, 0, 0
75218356, 0, 0
75234996, 4, 0
75251632, 1, 0
75268284, 1, 0
75284912, 1, 0
75301560, 1, 0
75318192, 4, 0
75334836, 0, 0
75351476, 4, 0
75368120, 25, 1
75385784, 16, 1
75403476, 25, 0
75421148, 16, 0
75438824, 0, 0
75455464, 16, 1
75473152, 9, 0
75489788, 0, 1
75506428, 1, 0
75523064, 0, 1
75539716, 1, 0
75556348, 9, 0
75572988, 9, 1
75589640, 1, 1
75606280, 25, 0
75623956, 16, 1
75641640, 9, 0
75658280, 100, 0
75677000, 36, 1
75694668, 9, 1
75711316, 1, 0
75727956, 0, 1
75744592, 0, 0
75761240, 1, 1
75777876, 1, 0
75794516, 0, 1
75811156, 0, 0
75827788, 9, 1
75844436, 9, 0
75861076, 4, 1
75877716, 0, 0
75894348, 1, 0
75910988, 0, 0
75927636, 1, 4
75944276, 1, 1
75960904, 0, 0
75977548, 0, 0
75994196, 0, 1
76010836, 1, 0
76027468, 4, 0
76044116, 1, 0
76060764, 1, 0
76077396, 0, 0
76094040, 1, 1
76110668, 0, 0
76127316, 0, 0
76143956, 0, 0
76160592, 0, 1
76177232, 1, 0
76193872, 1, 0
76210516, 9, 0
76227144, 9, 0
76243788, 1, 0
76260436, 1, 0
76277076, 4, 0
76293704, 0, 0
76310352, 0, 1
76326992, 0, 0
76343644, 1, 0
76360276, 0, 0
76376912, 4, 0
76393556, 1, 0
76410192, 0, 0
76426828, 0, 4
76443472, 0, 1
76460124, 0, 0
76476768, 0, 4
76493392, 1, 0
76510040, 4, 9
76526676, 9, 4
76543312, 16, 0
76560996, 4, 0
76577640, 0, 1
76594276, 0, 0
76610916, 0, 1
76627544, 1, 0
76644188, 1, 0
76660836, 0, 0
76677488, 1, 1
76694108, 0, 0
76710756, 1, 4
76727396, 9, 1
76744036, 9, 0
76760680, 0, 1
76777320, 0, 1
76793968, 1, 1
76810596, 4, 0
76827228, 1, 0
76843864, 1, 0
76860520, 0, 1
76877156, 4, 0
76893800, 9, 4
76910436, 0, 1
76927076, 0, 1
76943716, 4, 1
76960348, 4, 0
76976988, 9, 0
76993640, 4, 1
77010272, 4, 0
77026908, 0, 0
77043560, 1, 0
77060204, 0, 0
77076836, 0, 0
77093472, 0, 0
77110120, 0, 0
77126756, 0, 0
77143396, 4, 0
77160028, 1, 0
77176680, 0, 1
77193316, 0, 0
77209960, 1, 1
77226584, 0, 0
77243228, 1, 0
77259876, 9, 1
77276516, 9, 0
77293156, 1, 0
77309788, 0, 0
77326436, 0, 0
77343080, 0, 1
77359712, 0, 0
77376356, 0, 0
77392992, 1, 0
77409632, 0, 0
77426268, 0, 1
77442908, 0, 1
77459564, 1, 0
77476196, 9, 0
77492828, 1, 0
77509468, 1, 0
77526112, 4, 0
77542756, 16, 1
77560436, 9, 0
77577076, 0, 0
77593720, 0, 0
77610364, 1, 0
77626988, 1, 0
77643640, 0, 0
77660284, 0, 0
77676916, 0, 0
77693556, 1, 0
77710188, 0, 0
77726832, 0, 0
77743476, 1, 0
77760112, 0, 1
77776760, 0, 0
77793396, 1, 0
77810048, 4, 0
77826676, 1, 0
77843312, 1, 0
77859956, 0, 0
77876600, 0, 1
77893232, 0, 1
77909876, 4, 1
77926516, 9, 0
77943156, 4, 4
77959796, 0, 4
77976428, 9, 0
77993076, 9, 1
78009716, 1, 0
78026348, 0, 0
78042988, 0, 0
78059640, 4, 4
78076280, 0, 1
78092908, 0, 0
78109544, 0, 0
78126196, 9, 0
78142840, 16, 1
78160516, 4, 1
78177152, 0, 1
78193796, 0, 0
78210436, 1, 0
78227068, 0, 0
78243716, 1, 0
78260364, 0, 0
78277008, 1, 0
78293636, 1, 0
78310276, 0, 0
78326916, 1, 0
78343564, 4, 0
78360196, 0, 0
78376828, 0, 0
78393476, 4, 0
78410116, 1, 0
78426752, 4, 0
78443392, 36, 0
78461076, 25, 0
78478756, 0, 0
78495400, 16, 0
78513056, 4, 0
78529720, 9, 1
78546352, 25, 1
78564040, 9, 4
78580668, 0, 0
78597316, 1, 1
78613948, 4, 1
78630596, 9, 0
78647220, 9, 0
78663876, 4, 0
78680512, 1, 0
78697156, 4, 0
78713792, 4, 0
78730440, 1, 0
78747068, 0, 0
78763708, 0, 0
78780356, 0, 1
78797004, 1, 0
78813628, 0, 0
78830268, 0, 0
78846900, 0, 0
78863552, 1, 0
78880196, 1, 0
78896840, 0, 0
78913468, 0, 0
78930112, 0, 0
78946748, 1, 0
78963400, 1, 0
78980032, 0, 0
78996692, 0, 1
79013316, 1, 0
79029956, 1, 0
79046588, 4, 1
79063244, 9, 1
79079876, 1, 0
79096516, 1, 0
79113144, 4, 0
79129796, 25, 0
79147464, 9, 0
79164116, 4, 0
79180752, 9, 0
79197404, 4, 0
79214036, 9, 0
79230672, 4, 1
79247312, 1, 0
79263956, 1, 0
79280588, 0, 0
79297232, 0, 0
79313856, 0, 0
79330512, 0, 0
79347148, 0, 1
79363796, 0, 0
79380436, 0, 1
79397088, 0, 0
79413708, 1, 1
79430356, 9, 0
79446992, 4, 0
79463636, 0, 0
79480268, 0, 0
79496908, 0, 0
79513544, 1, 0
79530196, 0, 0
79546828, 0, 0
79563468, 0, 0
79580112, 0, 0
79596760, 0, 1
79613388, 0, 0
79630028, 0, 0
79646660, 1, 0
79663316, 1, 0
79679968, 1, 0
79696596, 0, 0
79713220, 0, 0
79729876, 0, 0
79746504, 0, 0
79763156, 0, 0
79779788, 0, 0
79796436, 4, 1
79813076, 1, 0
79829720, 1, 1
79846344, 1, 0
79862996, 0, 0
79879632, 0, 0
79896276, 0, 0
79912908, 0, 0
79929556, 0, 0
79946188, 0, 1
79962828, 0, 0
79979472, 0, 1
79996112, 0, 0
80012744, 0, 0
80029384, 0, 0
80046016, 0, 0
80062676, 0, 0
80079324, 0, 1
80095956, 0, 0
80112584, 0, 1
80129240, 0, 0
80145868, 1, 0
80162508, 1, 1
80179152, 4, 0
80195796, 1, 0
80212428, 0, 0
80229068, 0, 1
80245700, 0, 0
80262356, 0, 0
80278996, 0, 0
80295632, 0, 1
80312264, 0, 1
80328916, 0, 0
80345548, 0, 0
80362196, 0, 0
80378836, 0, 0
80395476, 0, 0
80412108, 0, 0
80428748, 0, 1
80445380, 0, 0
80462036, 0, 0
80478668, 0, 0
80495316, 0, 0
80511944, 0, 1
80528596, 0, 0
80545228, 0, 0
80561868, 0, 0
80578512, 0, 0
80595160, 0, 1
80611784, 0, 0
80628432, 0, 1
80645064, 0, 0
80661728, 0, 0
80678360, 0, 0
80694996, 0, 0
80711620, 0, 0
80728272, 0, 0
80744908, 4, 0
80761556, 1, 0
80778196, 1, 0
80794840, 0, 0
80811468, 1, 0
80828120, 1, 0
80844740, 1, 0
80861396, 0, 1
80878036, 0, 0
80894676, 0, 0
80911304, 0, 1
80927956, 0, 0
80944588, 0, 0
80961228, 0, 0
80977872, 0, 1
80994516, 0, 0
81011148, 1, 0
81027796, 1, 4
81044424, 0, 1
81061076, 0, 1
81077716, 1, 4
81094360, 1, 1
81110992, 1, 0
81127632, 1, 0
81144276, 1, 0
81160916, 0, 0
81177552, 1, 1
81194196, 1, 0
81210824, 0, 0
81227468, 0, 1
81244104, 0, 0
81260756, 0, 0
81277396, 0, 0
81294024, 4, 0
81310660, 1, 0
81327312, 0, 0
81343944, 0, 0
81360600, 1, 4
81377232, 0, 0
81393876, 1, 0
81410520, 1, 0
81427144, 0, 0
81443788, 1, 0
81460440, 0, 0
81477076, 1, 0
81493716, 1, 0
81510340, 0, 0
81526996, 0, 0
81543624, 0, 0
81560272, 0, 1
81576912, 0, 0
81593556, 0, 0
81610196, 1, 0
81626836, 1, 9
81643468, 9, 9
81660124, 1, 0
81676760, 0, 1
81693384, 0, 0
81710020, 0, 0
81726672, 1, 0
81743308, 1, 0
81759960, 1, 1
81776588, 1, 0
81793236, 0, 0
81809868, 0, 0
81826508, 0, 1
81843140, 4, 0
81859796, 4, 0
81876440, 1, 1
81893068, 1, 0
81909700, 0, 1
81926352, 0, 0
81943000, 1, 0
81959640, 0, 0
81976260, 0, 0
81992924, 1, 0
82009548, 1, 1
82026184, 1, 0
82042816, 1, 0
82059476, 1, 0
82076120, 0, 1
82092756, 0, 1
82109388, 0, 0
82126048, 0, 1
82142672, 0, 1
82159320, 0, 0
82175940, 0, 0
82192596, 0, 1
82209224, 0, 0
82225880, 1, 0
82242508, 0, 0
82259160, 0, 1
82275796, 0, 0
82292424, 1, 0
82309060, 0, 0
82325716, 0, 1
82342348, 0, 0
82358992, 4, 0
82375628, 4, 1
82392284, 4, 0
82408908, 1, 1
82425548, 0, 0
82442192, 0, 0
82458848, 0, 1
82475472, 0, 0
82492104, 0, 0
82508744, 0, 1
82525396, 0, 0
82542040, 0, 0
82558680, 0, 0
82575312, 0, 0
82591956, 0, 0
82608588, 0, 0
82625224, 0, 0
82641868, 0, 0
82658520, 0, 0
82675148, 0, 1
82691792, 0, 1
82708424, 0, 0
82725076, 0, 0
82741716, 0, 0
82758360, 1, 0
82774988, 0, 0
82791632, 0, 0
82808268, 0, 1
82824908, 0, 0
82841548, 0, 1
82858208, 0, 0
82874836, 0, 0
82891468, 0, 0
82908100, 0, 0
82924760, 0, 1
82941388, 0, 0
82958040, 1, 0
82974660, 1, 0
82991312, 0, 0
83007948, 0, 0
83024596, 0, 0
83041236, 0, 0
83057888, 0, 1
83074516, 0, 0
83091144, 0, 0
83107784, 0, 1
83124436, 0, 0
83141072, 0, 0
83157720, 1, 0
83174344, 0, 0
83190996, 0, 0
83207624, 0, 0
83224276, 1, 0
83240908, 0, 0
83257568, 0, 0
83274184, 0, 0
83290824, 0, 0
83307460, 0, 0
83324112, 0, 0
83340748, 0, 0
83357392, 0, 0
83374024, 0, 0
83390676, 0, 0
83407308, 0, 0
83423956, 1, 0
83440584, 0, 0
83457240, 0, 1
83473864, 0, 0
83490504, 0, 0
83507140, 0, 1
83523796, 0, 0
83540440, 0, 0
83557076, 0, 0
83573700, 0, 0
83590348, 0, 0
83606988, 0, 0
83623628, 0, 0
83640272, 0, 0
83656928, 0, 1
83673548, 0, 0
83690188, 0, 0
83706820, 0, 0
83723472, 0, 0
83740112, 0, 1
83756764, 0, 0
83773380, 0, 0
83790032, 0, 0
83806668, 0, 0
83823316, 0, 0
83839956, 0, 1
83856596, 0, 0
83873224, 0, 0
83889868, 0, 0
83906504, 0, 0
83923156, 0, 0
83939796, 0, 0
83956436, 0, 0
83973060, 0, 0
83989716, 0, 0
84006344, 0, 0
84022996, 1, 0
84039632, 0, 0
84056272, 0, 0
84072904, 0, 0
84089548, 0, 0
84106180, 0, 0
84122832, 0, 0
84139476, 0, 0
84156112, 0, 0
84172740, 0, 0
84189392, 0, 0
84206024, 0, 0
84222668, 0, 0
84239312, 0, 1
84255960, 0, 0
84272588, 0, 0
84289232, 0, 1
84305860, 0, 0
84322516, 0, 0
84339156, 0, 0
84355804, 0, 1
84372420, 0, 0
84389076, 0, 0
84405704, 0, 0
84422356, 0, 0
84438996, 0, 0
84455648, 0, 1
84472268, 0, 0
84488908, 0, 1
84505540, 0, 0
84522208, 0, 0
84538836, 0, 0
84555468, 0, 0
84572100, 0, 0
84588756, 0, 0
84605388, 0, 0
84622028, 0, 1
84638672, 0, 0
84655316, 0, 0
84671948, 0, 0
84688588, 0, 1
84705228, 0, 0
84721880, 0, 0
84738520, 0, 1
84755160, 0, 1
84771784, 0, 1
84788436, 0, 0
84805068, 0, 0
84821720, 0, 0
84838348, 0, 0
84854996, 0, 4
84871628, 0, 1
84888264, 0, 0
84904904, 0, 1
84921556, 0, 0
84938200, 0, 1
84954836, 0, 0
84971464, 0, 1
84988116, 0, 0
85004748, 0, 0
85021384, 0, 0
85038028, 0, 1
85054680, 0, 0
85071304, 0, 0
85087948, 0, 1
85104580, 0, 0
85121236, 0, 0
85137880, 0, 1
85154504, 0, 0
85171140, 0, 0
85187796, 0, 0
85204428, 0, 0
85221072, 0, 0
85237712, 0, 0
85254352, 0, 0
85270984, 1, 0
85287628, 0, 0
85304264, 0, 1
85320924, 0, 1
85337560, 0, 0
85354188, 0, 0
85370824, 0, 0
85387476, 0, 0
85404120, 0, 0
85420760, 0, 0
85437396, 0, 1
85454044, 0, 0
85470668, 0, 0
85487308, 0, 0
85503940, 0, 0
85520596, 0, 0
85537236, 1, 0
85553876, 0, 0
85570500, 0, 0
85587156, 0, 1
85603788, 0, 0
85620428, 0, 0
85637072, 0, 1
85653716, 0, 0
85670344, 0, 0
85686984, 0, 0
85703620, 0, 0
85720276, 0, 0
85736924, 0, 1
85753548, 0, 0
85770180, 0, 0
85786836, 0, 1
85803468, 0, 0
85820120, 0, 0
85836752, 0, 0
85853396, 0, 0
85870028, 0, 1
85886664, 0, 0
85903296, 0, 0
85919956, 0, 0
85936604, 0, 1
85953224, 0, 0
85969852, 0, 0
85986516, 0, 1
86003148, 0, 0
86019800, 0, 0
86036432, 0, 0
86053072, 0, 0
86069708, 0, 1
86086344, 0, 0
86102980, 0, 0
86119644, 0, 0
86136276, 0, 1
86152904, 0, 0
86169540, 0, 0
86186200, 0, 1
86202824, 0, 0
86219480, 0, 1
86236112, 0, 0
86252756, 0, 0
86269388, 0, 0
86286028, 0, 1
86302660, 0, 0
86319316, 0, 0
86335960, 0, 1
86352596, 0, 0
86369220, 0, 0
86385876, 0, 0
86402504, 0, 0
86419156, 0, 0
86435792, 0, 1
86452436, 0, 0
86469068, 0, 0
86485704, 0, 0
86502352, 1, 0
86519008, 0, 0
86535636, 0, 0
86552268, 0, 0
86568900, 0, 0
86585552, 0, 0
86602188, 0, 0
86618840, 0, 1
86635472, 0, 0
86652112, 0, 0
86668748, 0, 0
86685388, 0, 0
86702032, 1, 0
86718688, 0, 0
86735308, 0, 0
86751948, 0, 0
86768580, 0, 0
86785236, 0, 1
86801880, 0, 1
86818520, 0, 0
86835140, 0, 0
86851796, 0, 0
86868428, 0, 0
86885064, 0, 0
86901700, 0, 0
86918368, 0, 0
86934984, 0, 0
86951624, 0, 0
86968260, 1, 0
86984912, 0, 0
87001548, 0, 0
87018200, 0, 0
87034832, 0, 0
87051480, 0, 1
87068104, 0, 0
87084748, 0, 0
87101380, 0, 0
87118040, 0, 0
87134676, 0, 0
87151308, 0, 0
87167944, 0, 1
87184596, 0, 0
87201228, 0, 0
87217880, 0, 0
87234512, 1, 1
87251156, 0, 1
87267788, 0, 0
87284424, 0, 0
87301060, 0, 0
87317724, 0, 0
87334348, 0, 0
87350984, 0, 0
87367620, 0, 0
87384276, 0, 1
87400916, 0, 0
87417560, 0, 1
87434184, 0, 0
87450836, 0, 0
87467468, 0, 0
87484104, 0, 0
87500740, 0, 0
87517400, 0, 1
87534040, 0, 0
87550664, 0, 0
87567300, 0, 0
87583952, 0, 0
87600588, 0, 0
87617236, 0, 0
87633868, 0, 0
87650512, 0, 0
87667148, 0, 0
87683788, 0, 1
87700428, 0, 0
87717080, 0, 1
87733708, 0, 0
87750344, 0, 0
87766984, 0, 0
87783636, 0, 0
87800280, 0, 0
87816920, 0, 0
87833540, 0, 0
87850196, 0, 0
87866828, 0, 0
87883468, 0, 0
87900112, 0, 0
87916764, 0, 0
87933384, 0, 0
87950028, 1, 0
87966664, 0, 0
87983316, 0, 0
87999956, 0, 0
88016596, 0, 0
88033220, 0, 0
88049872, 0, 0
88066504, 0, 0
88083148, 0, 1
88099784, 0, 0
88116448, 0, 1
88133076, 0, 0
88149704, 0, 0
88166340, 0, 0
88182992, 0, 0
88199636, 0, 1
88216276, 0, 0
88232912, 0, 0
88249556, 0, 0
88266188, 0, 0
88282828, 1, 0
88299460, 0, 0
88316120, 0, 0
88332756, 0, 0
88349384, 0, 0
88366020, 0, 0
88382676, 0, 1
88399316, 0, 0
88415960, 1, 0
88432584, 1, 0
88449236, 0, 0
88465868, 0, 0
88482512, 0, 0
88499148, 0, 1
88515800, 0, 0
88532424, 0, 0
88549064, 0, 0
88565704, 0, 1
88582352, 0, 0
88598996, 1, 0
88615636, 1, 0
88632260, 0, 0
88648916, 0, 0
88665548, 0, 0
88682188, 0, 0
88698824, 0, 1
88715484, 0, 0
88732108, 0, 1
88748748, 0, 0
88765384, 0, 0
88782036, 0, 0
88798680, 0, 0
88815316, 0, 0
88831940, 1, 0
88848596, 0, 1
88865228, 0, 0
88881872, 0, 0
88898512, 0, 0
88915156, 0, 0
88931784, 0, 0
88948428, 1, 0
88965060, 0, 0
88981716, 0, 0
88998360, 0, 1
89015000, 0, 0
89031620, 0, 0
89048276, 0, 0
89064908, 0, 0
89081548, 0, 0
89098192, 0, 0
89114836, 0, 0
89131464, 0, 0
89148108, 0, 0
89164744, 1, 0
89181396, 0, 0
89198040, 0, 0
89214676, 0, 0
89231316, 0, 1
89247952, 0, 0
89264588, 0, 1
89281236, 0, 0
89297872, 1, 0
89314520, 0, 0
89331148, 0, 1
89347784, 0, 0
89364420, 0, 1
89381076, 0, 0
89397720, 0, 0
89414356, 0, 0
89430980, 0, 0
89447636, 0, 0
89464268, 0, 1
89480908, 0, 0
89497556, 0, 1
89514204, 0, 0
89530832, 1, 0
89547472, 0, 1
89564100, 0, 0
89580756, 0, 0
89597392, 0, 1
89614032, 0, 0
89630660, 0, 0
89647316, 0, 0
89663948, 0, 1
89680588, 0, 0
89697232, 0, 0
89713888, 1, 1
89730508, 0, 1
89747148, 0, 0
89763784, 0, 0
89780444, 0, 0
89797076, 0, 0
89813708, 0, 0
89830340, 0, 0
89846996, 0, 0
89863624, 0, 0
89880268, 0, 0
89896916, 0, 1
89913564, 0, 0
89930192, 0, 1
89946828, 0, 0
89963460, 0, 1
89980128, 0, 0
89996756, 0, 0
90013388, 0, 0
90030020, 0, 0
90046668, 0, 0
90063308, 0, 1
90079956, 0, 0
90096592, 0, 0
90113244, 0, 0
90129872, 0, 1
90146508, 0, 0
90163140, 0, 0
90179804, 1, 0
90196440, 0, 1
90213076, 0, 0
90229700, 0, 1
90246360, 0, 1
90262988, 0, 0
90279640, 0, 1
90296272, 0, 0
90312920, 0, 0
90329548, 0, 0
90346188, 0, 1
90362820, 0, 0
90379480, 0, 1
90396116, 0, 0
90412756, 0, 0
90429380, 0, 0
90446036, 0, 0
90462668, 0, 0
90479320, 1, 0
90495952, 0, 0
90512608, 1, 0
90529228, 0, 0
90545872, 0, 0
90562508, 0, 0
90579156, 0, 0
90595800, 0, 1
90612436, 0, 0
90629060, 0, 0
90645716, 0, 0
90662348, 0, 0
90679000, 1, 0
90695632, 0, 0
90712280, 0, 0
90728908, 0, 1
90745544, 0, 0
90762184, 0, 0
90778848, 0, 0
90795480, 0, 0
90812116, 1, 0
90828748, 0, 0
90845388, 0, 0
90862028, 1, 0
90878668, 0, 0
90895312, 0, 1
90911956, 0, 0
90928588, 0, 1
90945224, 0, 0
90961872, 0, 0
90978520, 0, 0
90995160, 0, 0
91011796, 0, 0
91028420, 0, 0
91045080, 0, 1
91061708, 0, 0
91078360, 0, 1
91094988, 0, 0
91111636, 0, 1
91128268, 0, 0
91144908, 0, 1
91161548, 0, 0
91178208, 0, 0
91194836, 0, 0
91211464, 0, 0
91228100, 0, 0
91244756, 0, 1
91261388, 0, 0
91278044, 0, 1
91294672, 0, 0
91311316, 1, 0
91327948, 0, 0
91344584, 0, 0
91361220, 0, 0
91377884, 1, 0
91394516, 0, 0
91411148, 0, 0
91427780, 0, 0
91444436, 0, 1
91461064, 0, 0
91477720, 0, 0
91494352, 0, 0
91510992, 0, 0
91527624, 0, 0
91544268, 0, 0
91560904, 0, 1
91577568, 0, 0
91594192, 0, 0
91610828, 0, 1
91627460, 0, 0
91644116, 0, 0
91660748, 0, 1
91677396, 0, 0
91694032, 0, 0
91710672, 0, 0
91727308, 0, 0
91743948, 0, 0
91760584, 0, 0
91777240, 0, 0
91793880, 0, 1
91810504, 0, 0
91827140, 0, 1
91843792, 0, 0
91860436, 0, 0
91877076, 0, 0
91893708, 0, 0
91910356, 1, 0
91926988, 0, 0
91943624, 0, 0
91960260, 0, 0
91976920, 0, 1
91993544, 0, 0
92010188, 0, 1
92026820, 0, 0
92043476, 0, 0
92060116, 0, 0
92076760, 0, 0
92093392, 0, 0
92110036, 0, 0
92126668, 0, 1
92143308, 0, 0
92159952, 1, 0
92176596, 0, 0
92193236, 1, 0
92209876, 0, 0
92226504, 0, 1
92243156, 0, 0
92259792, 0, 0
92276440, 0, 0
92293068, 1, 0
92309716, 0, 1
92326348, 0, 0
92342992, 1, 0
92359620, 0, 0
92376284, 0, 1
92392916, 1, 0
92409544, 0, 0
92426184, 0, 0
92442832, 0, 0
92459468, 1, 0
92476112, 0, 0
92492752, 0, 0
92509396, 0, 0
92526024, 0, 0
92542668, 0, 1
92559312, 0, 0
92575964, 0, 0
92592596, 0, 0
92609236, 4, 1
92625860, 4, 0
92642516, 4, 0
92659144, 36, 0
92676828, 16, 0
92694512, 1, 9
92711160, 9, 4
92727792, 9, 4
92744436, 1, 0
92761072, 49, 1
92778756, 64, 4
92796436, 4, 1
92813076, 0, 1
92829732, 1, 9
92846356, 25, 4
92864036, 49, 36
92882744, 25, 0
92900444, 25, 121
92920192, 1, 36
92937868, 16, 9
92955548, 9, 16
92973236, 0, 1
92989880, 0, 4
93006516, 1, 0
93023140, 4, 0
93039800, 4, 1
93056436, 9, 4
93073080, 1, 4
93089708, 0, 1
93106356, 4, 4
93122992, 16, 1
93140672, 1, 25
93158336, 1, 25
93176032, 0, 1
93192676, 0, 1
93209320, 25, 1
93226984, 16, 1
93244684, 16, 9
93262368, 49, 16
93281076, 49, 0
93298764, 9, 49
93316444, 1, 0
93333076, 1, 1
93349724, 4, 9
93366356, 0, 1
93383004, 0, 4
93399632, 36, 0
93417312, 1, 4
93433968, 36, 1
93451636, 16, 1
93469320, 1, 9
93485948, 4, 0
93502592, 1, 0
93519228, 0, 1
93535864, 1, 0
93552516, 1, 16
93570200, 0, 4
93586848, 1, 0
93603480, 121, 0
93622188, 196, 0
93640920, 9, 25
93658596, 169, 49
93678356, 100, 0
93697088, 1, 16
93714768, 144, 16
93734516, 225, 9
93753240, 9, 36
93770916, 0, 0
93787560, 16, 1
93805228, 9, 9
93821864, 1, 0
93838512, 1, 9
93855152, 0, 4
93871792, 1, 4
93888436, 9, 9
93905084, 25, 1
93922752, 1, 4
93939388, 1, 4
93956020, 0, 16
93973716, 9, 25
93991388, 16, 4
94009076, 9, 4
94025712, 1, 1
94042356, 0, 9
94058996, 0, 4
94075628, 4, 4
94092264, 9, 1
94108916, 0, 4
94125560, 1, 1
94142196, 4, 16
94159868, 16, 81
94178596, 16, 64
94197316, 4, 4
94213956, 4, 9
94230604, 4, 0
94247240, 0, 9
94263864, 0, 36
94281560, 0, 144
94300272, 0, 36
94317952, 0, 9
94334596, 0, 4
94351236, 9, 0
94367876, 4, 4
94384516, 1, 1
94401156, 9, 0
94417788, 4, 1
94434436, 0, 1
94451072, 1, 0
94467708, 0, 0
94484356, 1, 4
94500996, 16, 4
94518680, 16, 1
94536348, 4, 4
94552992, 4, 9
94569644, 1, 1
94586284, 9, 36
94603952, 36, 9
94621620, 4, 0
94638276, 4, 25
94655956, 9, 36
94673636, 0, 1
94690264, 0, 0
94706916, 1, 0
94723556, 16, 4
94741228, 4, 1
94757868, 1, 4
94774524, 4, 4
94791156, 1, 16
94808836, 1, 4
94825464, 4, 25
94843160, 64, 49
94861868, 49, 0
94879552, 9, 4
94896196, 0, 4
94912832, 0, 64
94930512, 1, 25
94948184, 4, 4
94964844, 9, 16
94982512, 0, 0
94999156, 4, 4
95015788, 0, 0
95032448, 4, 1
95049076, 0, 4
95065720, 0, 9
95082348, 0, 16
95100036, 4, 0
95116688, 1, 9
95133320, 0, 9
95149952, 4, 1
95166596, 1, 4
95183232, 9, 16
95200908, 0, 0
95217552, 16, 4
95235236, 16, 4
95252916, 9, 4
95269552, 9, 4
95286184, 0, 1
95302836, 1, 0
95319468, 9, 1
95336104, 0, 0
95352744, 0, 0
95369404, 4, 4
95386024, 16, 9
95403704, 16, 9
95421380, 9, 1
95438040, 4, 0
95454668, 0, 4
95471312, 0, 0
95487940, 0, 0
95504600, 0, 1
95521236, 1, 0
95537876, 4, 1
95554504, 0, 1
95571160, 0, 0
95587792, 0, 1
95604424, 0, 0
95621064, 0, 1
95637720, 0, 4
95654356, 1, 4
95670988, 4, 4
95687624, 4, 1
95704276, 4, 0
95720912, 1, 4
95737560, 1, 1
95754184, 0, 1
95770836, 0, 1
95787464, 0, 0
95804116, 1, 1
95820748, 0, 0
95837400, 4, 1
95854024, 1, 0
95870680, 4, 0
95887304, 9, 4
95903956, 9, 0
95920584, 1, 9
95937228, 0, 1
95953872, 0, 0
95970516, 0, 0
95987164, 1, 1
96003796, 9, 0
96020432, 1, 0
96037076, 0, 0
96053716, 1, 0
96070348, 36, 1
96088024, 81, 1
96105716, 36, 0
96123396, 36, 1
96141068, 225, 4
96159800, 49, 36
96178520, 0, 1
96195148, 9, 4
96211796, 9, 16
96229476, 0, 1
96246116, 25, 16
96264828, 81, 16
96283548, 64, 4
96301236, 25, 4
96318904, 0, 9
96335552, 1, 0
96352184, 0, 1
96368836, 0, 0
96385488, 9, 1
96402120, 49, 9
96419784, 16, 9
96437476, 1, 0
96454112, 4, 4
96470748, 9, 9
96487380, 9, 9
96504036, 4, 36
96521716, 16, 64
96540440, 25, 4
96558120, 36, 9
96575804, 144, 9
96594516, 4, 0
96611148, 0, 4
96627796, 1, 4
96644436, 16, 0
96662104, 36, 0
96679800, 324, 1
96698524, 225, 4
96717236, 16, 16
96735960, 36, 1
96753632, 0, 9
96770284, 1, 4
96786908, 121, 25
96806676, 121, 4
96825400, 0, 1
96842036, 49, 0
96859708, 169, 0
96878424, 49, 0
96896120, 16, 0
96913796, 36, 0
96931480, 4, 4
96948120, 9, 25
96965796, 25, 0
96983472, 16, 1
97001148, 0, 4
97017780, 9, 16
97035476, 0, 36
97053160, 1, 1
97069800, 1, 1
97086436, 4, 4
97103076, 4, 1
97119720, 0, 0
97136356, 0, 1
97152988, 9, 0
97169652, 4, 1
97186276, 25, 0
97203960, 9, 16
97221640, 16, 0
97239316, 9, 4
97255956, 0, 16
97273628, 0, 9
97290272, 0, 9
97306916, 4, 0
97323552, 0, 25
97341236, 1, 9
97357880, 9, 1
97374520, 9, 4
97391152, 4, 0
97407784, 9, 0
97424436, 16, 9
97442120, 1, 16
97459800, 81, 1
97477472, 100, 4
97496208, 4, 9
97512848, 0, 4
97529476, 1, 1
97546108, 0, 9
97562760, 1, 4
97579396, 4, 1
97596040, 4, 0
97612676, 49, 36
97631404, 100, 64
97651160, 25, 4
97668836, 9, 1
97685468, 9, 1
97702116, 16, 1
97719796, 9, 0
97736428, 0, 1
97753064, 0, 0
97769724, 49, 1
97787388, 100, 4
97806108, 25, 1
97823804, 36, 4
97841480, 81, 0
97859160, 9, 4
97875792, 25, 1
97893480, 4, 4
97910112, 0, 0
97926756, 1, 4
97943388, 0, 1
97960044, 4, 1
97976684, 0, 4
97993308, 0, 9
98009948, 1, 4
98026600, 0, 16
98044276, 4, 4
98060916, 16, 4
98078592, 0, 0
98095236, 0, 4
98111880, 1, 1
98128516, 1, 0
98145144, 0, 0
98161804, 4, 1
98178440, 36, 0
98196116, 4, 1
98212756, 4, 1
98229400, 9, 1
98246032, 4, 4
98262668, 25, 1
98280344, 9, 0
98297004, 4, 0
98313640, 4, 4
98330268, 0, 0
98346908, 1, 0
98363556, 25, 4
98381236, 9, 4
98397868, 4, 1
98414512, 4, 1
98431160, 4, 9
98447796, 25, 0
98465464, 16, 0
98483144, 16, 0
98500836, 16, 0
98518504, 9, 0
98535148, 4, 4
98551792, 25, 1
98569484, 4, 1
98586120, 16, 1
98603792, 4, 9
98620432, 4, 1
98637076, 9, 0
98653716, 9, 1
98670352, 4, 0
98687000, 1, 4
98703636, 9, 16
98721316, 1, 1
98737956, 16, 1
98755636, 4, 4
98772288, 0, 0
98788924, 1, 1
98805556, 49, 0
98823240, 25, 1
98840916, 0, 0
98857556, 9, 0
98874188, 25, 0
98891876, 25, 0
98909556, 16, 0
98927236, 9, 4
98943876, 1, 1
98960516, 16, 1
98978196, 0, 0
98994832, 16, 4
99012520, 121, 1
99031248, 1, 1
99047876, 16, 9
99065560, 16, 9
99083232, 25, 1
99100916, 36, 1
99118600, 9, 1
99135240, 4, 4
99151864, 0, 0
99168520, 49, 9
99186208, 36, 9
99203872, 9, 4
99220516, 4, 4
99237156, 4, 0
99253812, 1, 0
99270428, 144, 25
99290204, 64, 49
99308924, 0, 9
99325556, 0, 1
99342192, 0, 9
99358836, 64, 9
99376520, 144, 1
99395236, 4, 1
99411868, 1, 4
99428516, 0, 9
99445160, 16, 1
99462840, 100, 0
99481556, 16, 1
99499240, 9, 4
99515868, 9, 0
99532508, 0, 1
99549156, 1, 0
99565796, 25, 4
99583468, 0, 0
99600112, 9, 4
99616752, 1, 0
99633408, 36, 1
99651076, 36, 16
99669796, 0, 4
99686432, 4, 0
99703076, 4, 4
99719712, 16, 36
99738428, 36, 0
99756120, 49, 25
99774836, 49, 1
99792512, 25, 0
99810188, 16, 0
99827872, 1, 0
99844516, 9, 1
99861156, 16, 49
99879860, 0, 9
99896516, 1, 0
99913152, 100, 0
99931876, 289, 9
99950580, 81, 25
99969320, 0, 4
99985964, 81, 1
100003632, 49, 4
100022364, 4, 1
100040036, 1, 4
100057708, 25, 25
100077468, 1, 0
100095160, 9, 1
100112836, 1, 4
100130512, 49, 4
100149224, 25, 1
100167956, 0, 16
100186688, 1, 9
100204360, 36, 1
100223080, 49, 1
100241804, 64, 0
100260508, 144, 16
100281308, 121, 16
100302112, 16, 16
100321876, 1, 25
100340600, 1, 9
100358288, 49, 1
100377000, 100, 1
100396764, 100, 1
100416516, 9, 1
100434200, 1, 4
100451884, 9, 9
100469556, 16, 1
100488280, 0, 1
100505952, 9, 9
100523628, 9, 1
100541316, 1, 9
100558996, 0, 1
100576684, 36, 1
100595392, 121, 9
100615148, 1, 4
100632844, 9, 1
100650516, 16, 1
100669228, 100, 16
100690048, 49, 4
100708764, 9, 0
100726436, 4, 1
100744112, 1, 0
100761796, 9, 0
100779472, 0, 1
100797160, 36, 9
100815868, 16, 0
100834600, 0, 0
100852268, 4, 0
100869952, 9, 0
100887640, 16, 1
100906360, 0, 1
100924040, 25, 9
100942748, 16, 1
100961484, 0, 0
100979148, 36, 0
100997880, 1, 4
101015560, 9, 0
101033232, 9, 4
101050912, 0, 4
101068588, 36, 0
101087328, 36, 4
101106040, 4, 1
101123708, 0, 0
101141384, 0, 0
101159072, 4, 0
101176744, 36, 0
101195472, 16, 0
101214196, 0, 1
101231880, 0, 1
101249556, 4, 16
101268280, 16, 4
101287000, 4, 0
101304676, 196, 4
101324424, 256, 16
101345236, 196, 36
101366048, 676, 16
101386844, 144, 9
101406588, 0, 16
101425320, 0, 4
101442996, 16, 16
101462756, 4, 36
101481460, 9, 4
101499160, 9, 9
101516848, 9, 16
101535564, 0, 1
101553240, 9, 4
101570920, 16, 9
101589640, 1, 4
101607316, 16, 0
101626048, 4, 1
101643708, 9, 4
101661396, 1, 144
101681152, 16, 144
101701964, 25, 16
101721716, 36, 0
101740448, 4, 4
101758120, 0, 36
101776832, 1, 0
101794516, 1, 49
101813232, 9, 4
101830920, 0, 9
101848604, 1, 9
101866276, 16, 1
101884996, 9, 1
101902680, 4, 9
101920352, 4, 0
101938036, 1, 16
101956756, 0, 1
101974436, 0, 4
101992104, 4, 0
102009784, 36, 0
102028524, 0, 1
102046200, 36, 1
102064916, 9, 4
102082596, 1, 1
102100276, 0, 0
102117956, 1, 4
102135636, 25, 0
102154364, 4, 36
102173084, 9, 25
102191788, 16, 1
102210496, 16, 0
102229236, 4, 0
102246908, 0, 0
102264592, 0, 1
102282276, 4, 0
102299956, 0, 1
102317636, 4, 25
102336348, 0, 0
102354044, 0, 16
102372756, 0, 1
102390440, 1, 25
102409148, 0, 0
102426848, 1, 0
102444524, 1, 4
102462192, 4, 100
102481952, 1, 36
102500688, 9, 16
102519380, 25, 256
102540192, 64, 484
102560996, 25, 100
102581808, 36, 25
102601560, 16, 36
102621312, 0, 289
102641068, 9, 1
102658744, 25, 121
102679548, 16, 4
102698280, 81, 25
102718036, 49, 25
102737792, 1, 36
102756524, 4, 100
102776276, 0, 1
102793956, 1, 64
102812668, 16, 0
102831400, 4, 64
102850120, 25, 1
102868840, 1, 9
102886520, 0, 64
102905236, 16, 0
102923956, 9, 144
102943696, 36, 100
102964524, 9, 196
102984276, 25, 225
103005076, 1, 49
103023804, 16, 729
103044596, 81, 81
103064360, 49, 9
103083084, 4, 16
103101800, 9, 25
103120516, 4, 25
103139224, 0, 64
103157956, 49, 36
103177720, 16, 9
103196440, 0, 9
103214120, 0, 4
103231796, 0, 36
103250520, 1, 64
103269224, 0, 16
103287952, 4, 0
103305644, 1, 0
103323324, 49, 81
103343064, 81, 961
103363876, 4, 1681
103384668, 9, 529
103404432, 25, 25
103424200, 16, 1
103442916, 100, 0
103462672, 100, 9
103482444, 25, 9
103501156, 25, 676
103521944, 64, 121
103542752, 121, 36
103563564, 9, 4
103581236, 36, 100
103602036, 25, 225
103622844, 49, 16
103642592, 64, 0
103661320, 1, 100
103681080, 0, 0
103698764, 4, 0
103716428, 1, 16
103735152, 16, 100
103755964, 36, 100
103776760, 1, 49
103795468, 16, 25
103815240, 9, 121
103835008, 4, 36
103853716, 9, 121
103873468, 1, 36
103892196, 64, 361
103913000, 121, 225
103934832, 16, 4
103953564, 1, 121
103973316, 0, 121
103993068, 36, 169
104013864, 81, 81
104033640, 16, 144
104054428, 0, 9
104072108, 4, 36
104090832, 81, 49
104110588, 49, 100
104131392, 100, 100
104153244, 16, 225
104174028, 256, 9
104193788, 400, 1
104213556, 64, 1
104232280, 0, 961
104252028, 16, 1444
104273868, 144, 25
104294676, 25, 16
104314420, 121, 289
104336276, 225, 1089
104359148, 81, 576
104379952, 36, 0
104398672, 49, 324
104419464, 196, 121
104441312, 49, 4
104460040, 9, 9
104477720, 49, 1
104496436, 4, 25
104515148, 0, 64
104533884, 0, 100
104553648, 9, 100
104573396, 25, 0
104592112, 25, 169
104612916, 144, 361
104634756, 81, 576
104655548, 81, 784
104676356, 121, 676
104698208, 36, 1
104716912, 0, 81
104735644, 1, 9
104753332, 1, 9
104770984, 0, 25
104789708, 16, 16
104809476, 4, 9
104827156, 0, 4
104844840, 64, 1369
104866660, 196, 4900
104889556, 225, 441
104911404, 4, 2500
104932184, 841, 6084
104955084, 1089, 1444
104979000, 256, 4
104998764, 36, 0
105017476, 9, 196
105037232, 16, 484
105058032, 9, 25
105076752, 25, 36
105096528, 16, 225
105117308, 25, 324
105138120, 1, 196
105157872, 81, 361
105178684, 25, 256
105199468, 25, 441
105220288, 49, 625
105241080, 49, 49
105260844, 49, 0
105279560, 4, 16
105298280, 16, 16
105318036, 16, 324
105338824, 4, 289
105358596, 25, 49
105378348, 9, 16
105397076, 1, 81
105415804, 0, 1
105433476, 49, 169
105454280, 169, 529
105476120, 121, 49
105496920, 16, 100
105517720, 25, 225
105538508, 36, 64
105558288, 1, 36
105577012, 4, 36
105595712, 16, 25
105615472, 9, 361
105635240, 4, 144
105654992, 49, 64
105674744, 4, 400
105694528, 25, 1225
105716344, 16, 900
105737148, 16, 4
105755884, 1, 324
105775632, 25, 81
105795396, 25, 16
105815152, 16, 36
105834924, 1, 100
105854672, 16, 144
105875472, 4, 81
105894200, 0, 841
105913948, 4, 400
105933716, 81, 36
105953488, 1, 1
105971152, 16, 676
105991956, 169, 169
106013804, 36, 169
106034604, 1, 4
106052276, 25, 1089
106074104, 36, 576
106094920, 36, 4
106113636, 9, 0
106131316, 1, 81
106150036, 49, 100
106170828, 25, 16
106190592, 81, 9
106209320, 64, 1
106228044, 4, 196
106247792, 25, 1089
106269620, 144, 729
106291488, 100, 256
106313320, 49, 400
106334108, 225, 484
106355948, 196, 144
106377796, 4, 49
106396516, 1, 36
106415236, 36, 4
106433964, 4, 324
106453716, 16, 529
106474516, 1, 16
106493244, 1, 576
106512984, 25, 361
106533792, 81, 289
106554592, 36, 49
106574360, 4, 0
106592028, 9, 81
106610764, 1, 225
106630508, 121, 2304
106653392, 324, 289
106675236, 64, 256
106696044, 36, 225
106716840, 1, 25
106735556, 25, 16
106755336, 4, 169
106775088, 100, 529
106796912, 225, 324
106818760, 81, 100
106839564, 1, 1
106857232, 36, 1
106875956, 25, 9
106894684, 4, 100
106914436, 4, 0
106932108, 4, 81
106950844, 0, 256
106970592, 64, 289
106991392, 121, 1
107011164, 0, 25
107029880, 36, 9
107048596, 1, 1
107066284, 1, 169
107086048, 9, 36
107104764, 4, 0
107122444, 9, 4
107140120, 121, 16
107160916, 16, 81
107180668, 16, 196
107201468, 4, 9
107219156, 1, 49
107237868, 9, 9
107255552, 4, 25
107274276, 0, 25
107292996, 0, 144
107312752, 1, 484
107332512, 4, 16
107351240, 0, 9
107368916, 16, 0
107387640, 36, 36
107407400, 0, 36
107426128, 1, 16
107444840, 4, 36
107463548, 64, 841
107484348, 361, 2401
107507240, 256, 81
107528028, 36, 441
107548844, 25, 361
107569636, 4, 64
107588360, 4, 225
107608120, 9, 256
107627884, 4, 100
107647640, 1, 289
107667392, 289, 196
107689236, 256, 25
107710032, 4, 25
107728752, 64, 36
107748516, 36, 64
107768276, 1, 4
107785956, 0, 100
107805720, 0, 100
107825472, 1, 0
107843156, 0, 9
107860840, 9, 100
107880596, 81, 729
107901392, 324, 1369
107924260, 676, 2809
107947144, 676, 3136
107970028, 169, 289
107991872, 1, 0
108009560, 9, 16
108028276, 16, 0
108046984, 49, 64
108066756, 1, 100
108086524, 1, 1
108104196, 16, 4
108122920, 4, 16
108141644, 16, 1
108160368, 9, 0
108178044, 0, 0
108195724, 0, 9
108213404, 4, 4
108231088, 4, 4
108248752, 49, 49
108268512, 16, 4
108287232, 0, 25
108305952, 9, 16
108324680, 1, 64
108343400, 0, 16
108362116, 4, 676
108381876, 25, 729
108402668, 9, 64
108421388, 16, 121
108442196, 81, 64
108461944, 100, 729
108483796, 169, 1296
108506660, 169, 961
108528512, 16, 484
108549324, 0, 0
108566992, 16, 36
108586760, 196, 16
108607556, 144, 225
108629400, 25, 324
108650188, 100, 441
108672032, 100, 169
108693872, 16, 0
108712588, 1, 64
108731300, 100, 676
108753156, 576, 1600
108776036, 576, 529
108797868, 81, 49
108817644, 9, 289
108837408, 25, 121
108858192, 1, 36
108876912, 4, 0
108894604, 1, 36
108913320, 16, 1
108932036, 4, 121
108951804, 64, 196
108972588, 4, 196
108992356, 0, 49
109011080, 25, 1
109029800, 0, 9
109047476, 9, 0
109065148, 64, 100
109085968, 225, 121
109107796, 25, 0
109126504, 0, 36
109145240, 0, 36
109163956, 16, 289
109184736, 49, 900
109205556, 64, 1521
109227396, 64, 676
109248192, 49, 49
109267956, 4, 4
109285636, 25, 196
109306436, 4, 400
109326200, 4, 100
109345964, 4, 16
109364668, 4, 64
109383404, 1, 121
109403160, 1, 9
109420836, 1, 9
109438508, 36, 196
109459312, 64, 484
109480112, 121, 100
109501940, 289, 529
109523788, 100, 961
109545636, 36, 121
109566440, 64, 49
109586196, 0, 64
109604928, 9, 121
109624680, 36, 196
109645472, 0, 1
109663152, 1, 49
109681888, 0, 1
109699556, 36, 0
109718268, 64, 0
109737004, 16, 9
109755724, 0, 81
109774444, 49, 484
109795224, 144, 576
109817076, 64, 49
109836836, 0, 0
109854512, 4, 1
109872196, 0, 25
109890916, 4, 64
109909624, 9, 64
109928352, 0, 0
109946040, 4, 64
109964752, 64, 81
109984512, 49, 16
110004276, 1, 529
110024036, 81, 2916
110045864, 169, 1681
110068764, 289, 361
110090604, 36, 36
110110352, 0, 49
110129068, 9, 1
110146756, 100, 4
110166516, 36, 4
110185232, 4, 100
110204996, 9, 144
110224756, 1, 0
110242432, 49, 0
110261148, 324, 49
110281952, 81, 9
110300676, 1, 4
110318348, 9, 0
110336040, 4, 9
110353724, 9, 100
110373476, 36, 196
110394268, 25, 121
110415092, 9, 324
110434836, 16, 529
110455628, 81, 36
110475396, 81, 1
110494120, 9, 1
110511804, 0, 9
110529464, 1, 289
110549244, 16, 225
110570036, 4, 144
110589784, 81, 625
110610596, 16, 100
110631396, 25, 64
110651156, 25, 25
110670912, 64, 729
110691712, 100, 625
110713556, 25, 9
110732272, 4, 81
110751004, 9, 9
110768680, 1, 81
110787400, 16, 144
110808196, 36, 961
110828996, 9, 441
110848760, 81, 1
110867488, 36, 1
110886212, 9, 16
110904920, 16, 9
110923632, 100, 196
110945480, 289, 324
110967328, 64, 9
110986036, 16, 81
111005796, 144, 9
111025552, 196, 0
111045308, 49, 0
111064020, 16, 49
111083800, 25, 169
111104596, 1, 0
111122276, 16, 400
111143080, 81, 625
111163876, 16, 4
111182592, 9, 49
111201316, 16, 4
111220036, 1, 1
111237712, 1, 9
111255388, 1, 25
111274116, 9, 100
111293876, 4, 16
111312600, 64, 4
111331308, 144, 1
111351088, 49, 49
111370828, 81, 324
111391628, 49, 49
111411400, 9, 9
111429076, 0, 16
111447792, 0, 196
111467552, 16, 64
111487312, 1, 81
111506036, 4, 484
111525784, 9, 289
111545560, 16, 9
111564280, 4, 289
111584032, 9, 16
111602760, 0, 25
111621488, 4, 64
111640196, 49, 196
111660992, 49, 121
111681792, 64, 64
111701556, 49, 64
111721316, 16, 9
111740036, 0, 0
111757716, 1, 25
111776432, 0, 36
111795144, 9, 9
111812836, 16, 0
111831552, 0, 36
111850280, 0, 169
111870048, 9, 9
111887716, 0, 289
111907468, 25, 25
111927232, 4, 256
111946996, 169, 484
111968828, 100, 225
111990672, 16, 16
112010444, 0, 1
112028116, 0, 81
112046832, 25, 289
112067632, 16, 196
112088440, 9, 81
112107144, 49, 9
112125872, 64, 4
112144592, 0, 16
112163304, 49, 256
112184108, 49, 144
112204932, 4, 64
112223652, 9, 324
112243396, 36, 64
112263140, 16, 36
112282920, 0, 1
112300592, 0, 81
112319316, 4, 9
112337008, 9, 64
112355728, 49, 289
112376512, 36, 100
112397296, 25, 144
112418116, 25, 144
112438904, 36, 64
112458672, 100, 121
112480508, 121, 361
112502352, 64, 961
112523160, 16, 121
112543960, 1, 225
112563716, 16, 81
112583468, 4, 0
112601160, 1, 400
112620920, 1, 1764
112641724, 49, 484
112662504, 100, 4
112682276, 4, 144
112702044, 9, 1444
112722828, 144, 1296
112745724, 121, 256
112767552, 25, 9
112786276, 49, 4
112805008, 25, 49
112824756, 49, 324
112845560, 100, 324
112867400, 4, 121
112887160, 0, 25
112905876, 0, 0
112923548, 1, 81
112942284, 4, 169
112962032, 9, 729
112981784, 81, 2116
113003632, 100, 841
113025480, 81, 169
113046260, 36, 225
113067084, 81, 484
113087860, 289, 1600
113110752, 196, 1225
113133636, 169, 196
113155476, 64, 9
113174196, 0, 16
113192912, 4, 9
113210592, 25, 36
113230364, 49, 4
113249076, 64, 196
113269884, 1, 4
113287568, 25, 16
113307320, 36, 1
113326020, 100, 81
113346844, 196, 144
113368676, 196, 0
113388436, 4, 4
113406116, 16, 1
113424840, 36, 16
113444596, 49, 1
113463316, 49, 9
113482036, 16, 9
113500752, 196, 1
113520508, 841, 36
113541320, 289, 36
113562112, 49, 9
113580840, 1, 25
113599560, 16, 1
113618276, 0, 9
113635952, 9, 0
113653628, 16, 16
113673396, 16, 25
113693156, 0, 1
113710828, 4, 4
113728504, 9, 1
113746200, 4, 9
113763888, 1, 36
113782596, 1, 0
113800276, 0, 9
113817956, 0, 9
113835636, 4, 1
113853312, 0, 1
113870996, 1, 1
113888680, 1, 0
113906360, 4, 1
113924032, 0, 9
113941716, 1, 1
113959400, 4, 16
113978120, 9, 9
113995792, 0, 4
114013472, 9, 36
114032196, 25, 121
114052992, 16, 0
114071716, 25, 121
114092512, 0, 81
114111232, 4, 16
114129964, 1, 25
114148684, 49, 121
114169476, 49, 4
114188192, 9, 9
114205872, 169, 121
114227708, 36, 0
114246428, 1, 1
114264124, 0, 36
114282840, 16, 0
114301548, 36, 49
114321308, 4, 25
114340036, 16, 1
114358748, 9, 9
114376432, 0, 16
114395160, 16, 1
114413884, 1, 1
114431564, 16, 100
114452352, 9, 25
114471084, 16, 0
114489796, 1, 4
114507472, 0, 9
114525144, 4, 0
114542844, 1, 1
114560520, 1, 4
114578200, 1, 4
114595880, 36, 1
114614596, 25, 9
114633320, 0, 25
114652036, 4, 36
114670764, 1, 25
114689464, 0, 16
114708192, 0, 16
114726900, 4, 0
114744596, 4, 1
114762284, 0, 0
114779948, 0, 4
114797640, 0, 1
114815328, 0, 1
114833000, 1, 4
114850664, 0, 25
114869404, 4, 49
114888112, 16, 25
114907872, 9, 4
114925544, 1, 1
114943236, 0, 4
114960924, 0, 0
114978592, 1, 36
114997316, 4, 81
115016048, 4, 36
115034748, 0, 1
115052432, 0, 1
115070112, 0, 0
115087792, 4, 0
115105464, 16, 0
115124188, 1, 0
115141872, 0, 36
115160596, 0, 16
115179316, 1, 1
115197008, 0, 4
115214684, 4, 9
115232356, 4, 9
115250032, 9, 0
115267716, 4, 16
115286436, 0, 16
115305156, 4, 1
115322820, 16, 25
115342592, 4, 49
115361328, 4, 0
115379000, 4, 1
115396680, 0, 1
115414352, 0, 9
115432036, 1, 64
115450756, 9, 25
115469484, 4, 9
115487160, 0, 1
115504840, 0, 1
115522512, 1, 4
115540192, 0, 4
115557864, 0, 4
115575552, 1, 0
115593236, 9, 0
115610904, 0, 25
115629632, 1, 81
115648356, 0, 16
115667072, 0, 49
115685800, 1, 121
115705556, 9, 36
115724268, 9, 9
115741968, 1, 4
115759644, 1, 0
115777316, 0, 0
115795004, 1, 1
115812680, 4, 16
115831392, 0, 0
115849064, 9, 9
115866756, 0, 4
115884432, 0, 0
115902108, 1, 9
115919792, 1, 9
115937476, 0, 1
115955160, 1, 1
115972836, 0, 0
115990512, 1, 1
116008196, 0, 4
116025876, 0, 1
116043552, 0, 4
116061240, 0, 1
116078928, 0, 1
116096596, 1, 0
116114268, 4, 0
116131956, 0, 0
116149636, 1, 0
116167320, 1, 0
116184988, 0, 0
116202688, 0, 0
116220360, 0, 0
116238032, 1, 0
116255700, 4, 4
116273400, 0, 25
116292124, 1, 16
116310828, 0, 0
116328516, 1, 0
116346212, 1, 0
116363868, 0, 1
116381560, 4, 4
116399248, 16, 1
116417952, 0, 0
116435628, 16, 0
116454344, 36, 0
116473080, 25, 0
116491796, 9, 1
116509468, 9, 9
116527156, 16, 16
116546920, 16, 1
116565636, 1, 0
116583308, 100, 0
116603072, 81, 16
116622828, 4, 4
116640508, 9, 16
116659228, 64, 529
116680036, 25, 1600
116701868, 25, 676
116722664, 121, 100
116744528, 196, 144
116766356, 169, 100
116788192, 64, 1
116806916, 0, 64
116825644, 9, 36
116844356, 49, 0
116863076, 196, 4
116882840, 361, 0
116902588, 121, 0
116922344, 9, 0
116940040, 9, 0
116957720, 16, 1
116976432, 36, 16
116996204, 49, 9
117014920, 64, 1
117033632, 16, 0
117052352, 16, 0
117071076, 4, 1
117088748, 0, 1
117106436, 4, 0
117124120, 1, 1
117141800, 4, 16
117160516, 36, 4
117179228, 0, 0
117196924, 25, 1
117215632, 25, 49
117235396, 0, 36
117254112, 16, 1
117272832, 4, 0
117290516, 1, 1
117308196, 1, 1
117325876, 4, 0
117343556, 1, 0
117361236, 1, 9
117378908, 4, 49
117397640, 9, 16
117416356, 36, 0
117435076, 9, 9
117452736, 9, 16
117471480, 25, 4
117490204, 16, 1
117508920, 0, 1
117526596, 25, 4
117545312, 4, 16
117564036, 1, 1
117581712, 4, 25
117600444, 36, 36
117620192, 16, 16
117639948, 0, 9
117657632, 0, 0
117675312, 4, 0
117692992, 4, 0
117710668, 1, 0
117728356, 4, 0
117746040, 0, 1
117763712, 4, 4
117781388, 36, 0
117800112, 4, 9
117817792, 1, 9
117835480, 16, 1
117854184, 0, 4
117871884, 25, 0
117890612, 0, 1
117908268, 0, 1
117925952, 1, 9
117943636, 9, 9
117961316, 25, 0
117980036, 9, 0
117997716, 1, 1
118015396, 0, 4
118033076, 1, 0
118050756, 9, 0
118068440, 64, 0
118087148, 16, 0
118105868, 4, 1
118123556, 4, 4
118141236, 0, 4
118158916, 36, 0
118177636, 36, 9
118196360, 1, 0
118214036, 9, 16
118232760, 4, 4
118250424, 81, 9
118269156, 16, 9
118287868, 16, 4
118306584, 36, 4
118325316, 36, 0
118344036, 36, 1
118362756, 36, 4
118381468, 16, 0
118400200, 4, 4
118417876, 81, 0
118436588, 100, 4
118456360, 16, 4
118475088, 1, 1
118492756, 9, 1
118510432, 0, 4
118528116, 0, 0
118545796, 25, 4
118564512, 36, 4
118583232, 9, 1
118600924, 9, 1
118618600, 4, 9
118636276, 1, 4
118653960, 1, 1
118671644, 16, 0
118690348, 25, 9
118709080, 36, 9
118727796, 25, 1
118746516, 16, 0
118765224, 1, 0
118782916, 1, 0
118800600, 9, 0
118818284, 9, 4
118835952, 0, 1
118853640, 16, 4
118872356, 36, 9
118891068, 4, 9
118908752, 4, 0
118926436, 16, 4
118945164, 1, 4
118962836, 9, 1
118980512, 4, 16
118999244, 4, 0
119016908, 4, 0
119034588, 1, 1
119052268, 1, 0
119069960, 25, 1
119088680, 36, 4
119107388, 1, 1
119125076, 0, 0
119142760, 4, 1
119160440, 25, 9
119179148, 9, 1
119196836, 16, 4
119215556, 36, 4
119234268, 16, 4
119252992, 4, 4
119270684, 1, 4
119288356, 16, 1
119307068, 9, 0
119324756, 0, 0
119342432, 0, 0
119360116, 36, 9
119378840, 0, 9
119396516, 1, 4
119414196, 4, 1
119431876, 4, 0
119449540, 0, 9
119467236, 0, 0
119484916, 4, 9
119502596, 9, 4
119520284, 1, 1
119537960, 4, 1
119555636, 1, 0
119573312, 1, 4
119591004, 1, 0
119608676, 0, 0
119626356, 1, 0
119644032, 1, 0
119661716, 9, 4
119679396, 4, 9
119697076, 9, 4
119714752, 36, 1
119733472, 16, 0
119752196, 9, 1
119769876, 64, 4
119788600, 49, 1
119807320, 64, 1
119826040, 9, 0
119843712, 121, 4
119863484, 1, 4
119881156, 1, 0
119898836, 1, 0
119916504, 4, 0
119934196, 4, 0
119951864, 0, 9
119969552, 4, 1
119987232, 0, 0
120004916, 36, 0
120023636, 100, 0
120043396, 49, 0
120062116, 4, 1
120079796, 1, 1
120097476, 16, 4
120116196, 81, 1
120134920, 25, 9
120153644, 4, 0
120171308, 0, 1
120188996, 4, 1
120206676, 0, 4
120224356, 16, 4
120243076, 25, 4
120261800, 16, 9
120280520, 0, 4
120298192, 64, 4
120316908, 100, 1
120336672, 16, 0
120355400, 4, 9
120373076, 9, 4
120390756, 0, 4
120408440, 9, 16
120427160, 36, 9
120445864, 16, 4
120464596, 16, 4
120483312, 4, 0
120500984, 0, 0
120518676, 0, 1
120536364, 1, 0
120554036, 1, 4
120571708, 16, 1
120590440, 25, 0
120609156, 16, 1
120627880, 25, 1
120646592, 4, 1
120664276, 9, 4
120681956, 1, 1
120699628, 4, 0
120717308, 16, 0
120736032, 0, 9
120753716, 25, 36
120773476, 64, 4
120792196, 64, 1
120810928, 4, 9
120828592, 16, 4
120847304, 16, 0
120866036, 0, 0
120883716, 1, 0
120901396, 9, 4
120919072, 25, 0
120937796, 121, 16
120958588, 81, 4
120977312, 25, 0
120996040, 1, 1
121013716, 1, 4
121031388, 0, 4
121049064, 0, 1
121066756, 1, 0
121084440, 36, 1
121103156, 196, 4
121122916, 36, 16
121142680, 81, 0
121161396, 256, 25
121182188, 25, 25
121201964, 9, 0
121219640, 0, 1
121237316, 4, 0
121254996, 0, 1
121272676, 25, 4
121291400, 25, 1
121310112, 1, 16
121328836, 16, 64
121348592, 289, 64
121369396, 289, 0
121389172, 4, 0
121406840, 25, 4
121425560, 1, 1
121443236, 9, 1
121460928, 0, 1
121478584, 16, 0
121497312, 16, 1
121516028, 0, 0
121533720, 81, 4
121552436, 121, 25
121573232, 9, 49
121591956, 49, 9
121610668, 100, 0
121630436, 169, 1
121650204, 144, 4
121669956, 4, 0
121687628, 64, 0
121706356, 121, 1
121726116, 100, 1
121745872, 0, 1
121763552, 4, 25
121782280, 144, 81
121803076, 484, 9
121822828, 64, 1
121841552, 36, 0
121860284, 49, 4
121878996, 49, 1
121897720, 49, 0
121916444, 25, 1
121935156, 64, 0
121953868, 0, 4
121971552, 25, 0
121990292, 36, 4
122009016, 36, 1
122027712, 4, 1
122045384, 1, 0
122063076, 0, 4
122080744, 16, 4
122099468, 9, 4
122117164, 25, 64
122136916, 256, 4
122156668, 25, 4
122175384, 81, 0
122194116, 121, 0
122213884, 0, 1
122231552, 169, 25
122252356, 100, 16
122273160, 1, 0
122290836, 121, 0
122310592, 144, 1
122330360, 0, 9
122348032, 9, 1
122365708, 0, 0
122383396, 0, 0
122401084, 4, 1
122418748, 0, 0
122436428, 4, 0
122454116, 0, 0
122471796, 1, 0
122489476, 1, 0
122507148, 0, 1
122524840, 1, 1
122542520, 1, 0
122560192, 16, 0
122578912, 1, 0
122596596, 1, 0
122614272, 4, 0
122631948, 49, 144
122652760, 1, 1369
122673572, 121, 2601
122696420, 0, 1089
122717240, 36, 225
122738044, 1, 64
122756756, 4, 64
122775468, 4, 121
122795240, 144, 49
122816040, 25, 0
122834748, 4, 16
122853472, 0, 81
122872200, 25, 100
122892996, 169, 0
122912752, 196, 121
122934596, 36, 25
122954356, 1, 1
122972032, 0, 1
122989724, 1, 9
123007400, 0, 0
123025068, 16, 0
123043796, 1, 1
123061476, 361, 9
123081236, 484, 36
123102036, 121, 9
123121796, 9, 1
123139476, 0, 4
123157156, 1, 0
123174820, 0, 0
123192516, 1, 4
123210200, 1, 1
123227876, 16, 0
123246584, 36, 1
123265328, 4, 1
123282988, 0, 0
123300668, 1, 1
123318352, 1, 0
123336036, 0, 0
123353708, 1, 0
123371388, 9, 0
123389080, 4, 1
123406768, 0, 0
123424432, 0, 0
123442112, 0, 0
123459796, 1, 1
123477464, 0, 0
123495148, 0, 1
123512840, 0, 1
123530520, 0, 0
123548200, 0, 0
123565880, 0, 0
123583564, 0, 0
123601236, 0, 0
123618916, 0, 0
123636584, 1, 0
123654276, 1, 0
123671960, 0, 1
123689624, 1, 0
123707312, 0, 0
123725008, 0, 0
123742668, 0, 0
123760348, 0, 0
123778020, 0, 0
123795716, 0, 0
123813396, 0, 0
123831072, 0, 0
123848768, 0, 0
123866436, 0, 0
123884120, 1, 0
123901800, 0, 1
123919476, 0, 1
123937152, 0, 0
123954828, 0, 0
123972508, 0, 0
123990196, 0, 0
124007880, 0, 0
124025560, 0, 1
124043228, 0, 0
124060916, 0, 0
124078588, 0, 0
124096276, 0, 0
124113952, 0, 0
124131636, 0, 0
124149316, 0, 0
124167000, 0, 0
124184672, 0, 0
124202352, 0, 0
124220028, 0, 0
124237704, 0, 0
124255392, 0, 0
124273068, 0, 1
124290756, 0, 0
124308432, 0, 0
124326128, 0, 1
124343800, 0, 0
124361464, 0, 0
124379156, 0, 1
124396832, 0, 0
124414508, 0, 0
124432184, 0, 0
124449880, 0, 0
124467564, 0, 0
124485240, 0, 1
124502908, 0, 0
124520592, 0, 0
124538276, 0, 0
124555948, 0, 1
124573620, 1, 0
124591312, 0, 0
124609000, 0, 1
124626676, 0, 0
124644360, 0, 0
124662036, 0, 0
124679716, 0, 0
124697392, 1, 0
124715076, 0, 0
124732752, 0, 0
124750428, 0, 0
124768116, 0, 0
124785808, 0, 0
124803476, 0, 0
124821148, 0, 0
124838820, 0, 0
124856512, 0, 0
124874188, 0, 0
124891868, 0, 0
124909548, 0, 0
124927248, 0, 0
124944928, 0, 1
124962584, 0, 0
124980276, 0, 0
124997952, 1, 0
125015628, 0, 0
125033308, 0, 0
125050996, 0, 0
125068672, 0, 0
125086348, 0, 0
125104032, 0, 0
125121712, 0, 0
125139388, 0, 0
125157068, 0, 0
125174748, 0, 1
125192432, 0, 0
125210120, 1, 0
125227800, 0, 0
125245476, 0, 0
125263164, 0, 1
125280836, 1, 0
125298508, 1, 0
125316196, 0, 0
125333876, 0, 0
125351548, 0, 0
125369244, 0, 0
125386928, 0, 0
125404600, 0, 0
125422284, 0, 1
125439948, 0, 1
125457624, 0, 0
125475304, 0, 0
125492984, 0, 0
125510676, 0, 0
125528356, 0, 0
125546036, 0, 0
125563708, 0, 0
125581396, 0, 0
125599072, 0, 0
125616744, 0, 0
125634424, 0, 0
125652112, 0, 1
125669796, 0, 0
125687476, 0, 0
125705152, 0, 0
125722836, 0, 0
125740516, 0, 0
125758188, 0, 0
125775860, 0, 0
125793556, 0, 0
125811236, 0, 1
125828916, 0, 0
125846604, 1, 0
125864276, 1, 0
125881960, 0, 1
125899628, 0, 0
125917316, 0, 0
125934996, 0, 0
125952664, 1, 0
125970344, 0, 0
125988048, 0, 0
126005720, 0, 1
126023396, 0, 0
126041064, 0, 1
126058756, 0, 0
126076440, 1, 0
126094120, 0, 0
126111808, 0, 0
126129476, 0, 0
126147156, 0, 0
126164840, 0, 1
126182528, 0, 0
126200196, 0, 0
126217868, 0, 0
126235544, 0, 0
126253236, 0, 1
126270908, 0, 0
126288588, 0, 0
126306272, 0, 1
126323964, 0, 0
126341628, 0, 0
126359308, 0, 1
126376992, 0, 0
126394676, 0, 0
126412348, 0, 0
126430040, 0, 0
126447716, 0, 0
126465400, 0, 0
126483080, 0, 0
126500744, 0, 0
126518436, 0, 0
126536104, 0, 0
126553784, 0, 0
126571460, 1, 0
126589156, 0, 0
126606836, 0, 0
126624508, 0, 4
126642196, 0, 0
126659876, 0, 0
126677544, 0, 0
126695224, 0, 0
126712916, 0, 0
126730592, 0, 0
126748276, 0, 0
126765952, 0, 4
126783640, 0, 0
126801324, 1, 0
126818988, 0, 0
126836660, 0, 0
126854344, 0, 0
126872028, 0, 0
126889720, 0, 0
126907392, 0, 0
126925072, 0, 0
126942760, 0, 1
126960428, 0, 0
126978116, 0, 0
126995796, 0, 1
127013472, 0, 1
127031160, 0, 1
127048844, 0, 0
127066528, 0, 0
127084200, 1, 0
127101856, 9, 0
127119560, 16, 1
127138264, 1, 0
127155948, 0, 0
127173620, 0, 0
127191324, 1, 0
127208992, 0, 0
127226676, 0, 0
127244364, 0, 0
127262048, 1, 0
127279704, 0, 0
127297388, 0, 0
127315076, 0, 0
127332752, 0, 0
127350440, 1, 1
127368104, 1, 0
127385800, 0, 0
127403480, 0, 0
127421160, 0, 4
127438832, 0, 0
127456516, 0, 0
127474196, 0, 0
127491868, 0, 0
127509556, 0, 0
127527248, 1, 0
127544916, 0, 0
127562596, 0, 0
127580276, 0, 0
127597952, 0, 0
127615628, 0, 0
127633308, 0, 1
127650992, 0, 0
127668668, 0, 0
127686348, 0, 0
127704032, 0, 0
127721716, 0, 0
127739384, 0, 0
127757072, 1, 1
127774756, 0, 0
127792440, 0, 1
127810116, 1, 0
127827800, 0, 0
127845484, 0, 0
127863168, 0, 1
127880836, 1, 0
127898508, 0, 0
127916192, 0, 0
127933868, 0, 1
127951544, 0, 0
127969220, 1, 0
127986916, 0, 0
128004596, 1, 0
128022280, 0, 0
128039956, 0, 0
128057636, 0, 0
128075308, 0, 0
128092988, 1, 0
128110676, 0, 1
128128352, 0, 0
128146040, 0, 0
128163720, 0, 0
128181404, 0, 0
128199076, 0, 0
128216752, 0, 1
128234420, 0, 0
128252116, 0, 0
128269784, 0, 0
128287480, 0, 1
128305152, 0, 0
128322836, 0, 0
128340524, 0, 0
128358196, 0, 0
128375872, 0, 0
128393552, 0, 0
128411228, 0, 1
128428908, 0, 0
128446596, 0, 0
128464288, 0, 0
128481960, 0, 1
128499632, 0, 0
128517316, 0, 0
128534984, 0, 0
128552664, 0, 0
128570340, 0, 0
128588036, 0, 0
128605724, 0, 0
128623396, 0, 1
128641080, 0, 0
128658752, 0, 0
128676428, 0, 4
128694104, 1, 0
128711796, 1, 0
128729472, 0, 0
128747144, 0, 0
128764828, 0, 0
128782516, 0, 0
128800200, 0, 0
128817868, 0, 1
128835544, 0, 4
128853240, 0, 1
128870904, 0, 0
128888600, 0, 0
128906288, 0, 1
128923968, 0, 0
128941640, 0, 0
128959308, 0, 0
128977008, 1, 1
128994672, 1, 0
129012348, 0, 1
129030024, 0, 0
129047712, 0, 0
129065388, 1, 0
129083068, 0, 0
129100748, 0, 0
129118436, 0, 0
129136108, 0, 0
129153792, 0, 1
129171472, 1, 0
129189156, 0, 0
129206828, 0, 0
129224512, 0, 0
129242204, 0, 1
129259888, 0, 0
129277548, 0, 0
129295228, 0, 1
129312916, 0, 0
129330600, 0, 0
129348276, 0, 0
129365952, 1, 0
129383644, 0, 0
129401320, 0, 0
129418988, 0, 0
129436660, 0, 0
129454356, 0, 0
129472040, 0, 1
129489708, 1, 0
129507396, 0, 0
129525072, 1, 0
129542756, 0, 0
129560436, 0, 0
129578116, 0, 0
129595796, 0, 1
129613464, 0, 0
129631140, 0, 0
129648836, 4, 0
129666508, 0, 0
129684196, 0, 0
129701872, 0, 0
129719556, 0, 0
129737232, 0, 0
129754908, 0, 0
129772588, 0, 0
129790276, 0, 0
129807948, 1, 0
129825628, 0, 1
129843312, 0, 9
129860996, 0, 1
129878676, 1, 0
129896348, 0, 0
129914040, 0, 1
129931708, 0, 0
129949384, 1, 0
129967068, 0, 0
129984756, 0, 0
130002436, 0, 0
130020120, 0, 0
130037792, 0, 0
130055476, 0, 0
130073148, 0, 1
130090828, 0, 0
130108516, 0, 0
130126200, 0, 0
130143876, 0, 0
130161560, 0, 0
130179236, 0, 0
130196908, 0, 0
130214584, 0, 0
130232260, 0, 0
130249956, 1, 1
130267624, 0, 0
130285320, 1, 0
130303008, 1, 1
130320680, 0, 0
130338352, 1, 0
130356036, 1, 1
130373712, 1, 0
130391396, 0, 4
130409068, 0, 0
130426760, 0, 0
130444444, 0, 0
130462128, 0, 0
130479792, 0, 0
130497460, 0, 0
130515160, 0, 1
130532828, 0, 0
130550512, 0, 0
130568192, 0, 0
130585876, 0, 0
130603560, 0, 0
130621236, 0, 0
130638912, 0, 0
130656596, 1, 1
130674276, 1, 0
130691944, 0, 0
130709636, 0, 0
130727316, 0, 0
130745000, 0, 0
130762672, 0, 0
130780360, 0, 1
130798028, 0, 0
130815708, 0, 0
130833380, 0, 0
130851064, 0, 0
130868756, 0, 1
130886440, 0, 1
130904124, 0, 0
130921804, 1, 0
130939480, 0, 0
130957148, 0, 0
130974832, 0, 0
130992516, 0, 0
131010184, 0, 0
131027864, 0, 0
131045560, 0, 1
131063240, 0, 0
131080920, 0, 1
131098592, 0, 0
131116272, 0, 0
131133944, 0, 0
131151628, 0, 0
131169316, 0, 1
131187004, 1, 0
131204680, 1, 1
131222356, 0, 0
131240036, 0, 0
131257712, 0, 0
131275384, 0, 0
131293068, 1, 0
131310756, 0, 0
131328428, 0, 0
131346108, 0, 0
131363792, 0, 1
131381484, 0, 0
131399156, 0, 0
131416828, 0, 0
131434516, 0, 1
131452200, 0, 0
131469868, 0, 0
131487548, 0, 0
131505236, 0, 0
131522916, 0, 0
131540596, 0, 0
131558268, 0, 0
131575956, 0, 0
131593632, 0, 0
131611304, 0, 0
131628980, 0, 1
131646680, 0, 0
131664356, 0, 0
131682036, 0, 0
131699712, 0, 0
131717396, 0, 0
131735076, 0, 1
131752744, 0, 0
131770436, 0, 1
131788112, 0, 0
131805796, 1, 0
131823472, 0, 1
131841168, 0, 0
131858840, 0, 0
131876508, 0, 0
131894180, 0, 1
131911864, 0, 0
131929548, 0, 0
131947224, 0, 0
131964900, 0, 0
131982608, 1, 0
132000288, 0, 0
132017956, 1, 0
132035636, 0, 0
132053316, 0, 1
132070984, 0, 0
132088668, 0, 0
132106352, 0, 0
132124036, 0, 0
132141716, 0, 0
132159392, 0, 0
132177076, 0, 0
132194748, 0, 0
132212436, 1, 0
132230100, 0, 0
132247796, 0, 0
132265476, 1, 0
132283160, 0, 1
132300848, 0, 0
132318524, 0, 0
132336188, 0, 0
132353868, 1, 0
132371556, 1, 0
132389236, 0, 0
