Timestamp (micros),Sensor1 (mV),Sensor2 (mV)
51600,14884,9025
53860,15376,2916
56132,9,324
58188,784,324
60668,576,225
78336,576,49
94980,100,100
112644,81,256
130344,256,1
146992,841,144
165704,225,16
183364,2025,121
203136,4096,25
221848,196,81
239532,144,25
257224,676,4
273848,841,121
292576,25,64
309208,256,0
325868,36,1
341456,625,4
358092,1369,16
376804,2304,49
395536,2304,64
414248,400,49
431932,49,0
447548,0,9
462100,169,36
479788,1764,36
498488,81,196
516180,1936,0
533852,2209,196
553612,81,25
570248,324,1
586920,49,4
602508,4,1
617044,1444,81
635780,400,64
653472,625,36
671128,900,49
688808,121,0
705448,289,4
722104,1521,0
739776,1369,100
759536,900,25
777224,81,4
792820,144,81
810484,784,16
828172,2304,25
846900,1024,25
865612,529,4
882260,2500,49
900980,3025,121
920736,841,16
938420,64,36
955064,81,49
971684,400,0
988344,0,0
1002900,529,0
1020584,169,25
1039296,36,1
1055940,81,0
1072580,324,9
1090264,1024,25
1110008,225,25
1128744,1,1
1144348,9,0
1159944,4,4
1175544,1,1
1191144,256,4
1208824,729,16
1227540,324,4
1245216,1,0
1260828,144,4
1278512,225,4
1296184,36,16
1313864,225,4
1331548,441,9
1349220,0,0
1364820,25,9
1381468,25,0
1398100,841,16
1416820,2025,49
1436576,1521,144
1457388,625,49
1476104,25,1
1492740,361,16
1511460,100,9
1529136,1225,25
1548908,961,36
1567616,121,4
1585304,121,4
1602980,676,16
1621696,81,36
1639376,169,0
1657060,0,1
1672660,100,9
1690336,225,1
1708008,729,4
1725700,529,81
1744424,441,36
1763140,81,4
1779792,4,1
1795388,1,1
1810988,0,0
1826584,4,1
1842184,49,1
1858824,81,4
1875460,4,1
1891060,1,4
1906656,49,1
1923284,16,0
1939920,49,0
1956560,361,0
1974248,1,9
1989864,1369,16
2009620,529,121
2029376,256,0
2047068,484,4
2064736,144,36
2083436,1849,16
2103204,3721,196
2124020,49,196
2142740,841,16
2161456,1936,16
2181224,484,0
2198900,256,4
2216584,169,0
2234264,1,0
2249872,1,1
2265460,4,1
2281052,0,4
2296664,0,16
2313312,1,1
2328896,0,0
2344500,1,1
2360088,25,0
2376744,1,1
2392336,169,16
2411056,784,49
2429776,1369,81
2449540,121,9
2467228,225,49
2485932,64,36
2503604,1,0
2519220,16,4
2535864,4,1
2551460,400,16
2570168,529,25
2588900,144,1
2606568,1296,121
2627380,225,49
2646112,25,4
2662748,4,0
2678344,16,4
2694976,225,0
2712652,900,16
2731380,225,100
2751128,1225,16
2770884,3969,324
2791704,1024,144
2812496,0,4
2828092,1,1
2843708,1,25
2860344,64,25
2878012,81,1
2894640,1849,25
2914420,6084,100
2935212,1225,289
2956016,0,36
2972652,4,4
2988260,4,25
3004900,169,1
3022572,1521,4
3041300,1849,100
3062096,169,16
3080820,1,0
3096420,9,9
3112044,576,1
3129704,441,121
3149460,36,16
3167132,49,0
3183772,289,36
3202500,64,9
3219136,400,9
3236820,961,64
3255540,2500,81
3275300,676,121
3295060,25,9
3311712,36,0
3328340,100,4
3346020,9,25
3362656,144,0
3380344,49,16
3398016,169,16
3416744,81,4
3433376,4,0
3448976,25,49
3466660,81,0
3483308,9,36
3499940,9,4
3515548,196,64
3534252,324,0
3551924,529,144
3571696,576,1
3589380,256,81
3608100,4,0
3623700,9,16
3640352,64,64
3658032,4,4
3673612,1156,1
3692328,4096,36
3712116,900,169
3731864,289,64
3750580,3721,25
3770316,0,1225
3789052,24336,2500
3811928,0,121
3829608,4624,144
3850416,2304,25
3870180,1,49
3886812,324,36
3905524,5329,49
3925304,5625,289
3946100,1681,196
3966892,225,9
3984580,361,9
4002256,1521,64
4022016,225,100
4041780,324,0
4059444,841,64
4078184,144,36
4096904,225,0
4114592,529,1
4132268,64,1
4148892,324,16
4167600,1225,169
4188412,1600,121
4209204,36,0
4225844,5776,169
4246660,2500,324
4267460,36,4
4284092,1024,9
4302804,8649,484
4323620,2916,324
4344416,400,4
4362092,1225,9
4380828,1,1
4396408,64,4
4413048,3844,49
4432792,121,16
4451524,3136,81
4471292,144,9
4488980,400,81
4507704,100,100
4527452,1600,144
4548256,900,9
4565928,4,64
4582576,484,25
4601292,0,0
4616900,900,25
4635608,576,16
4654340,256,25
4673068,16,64
4690740,81,9
4707392,81,16
4725052,225,9
4742724,3025,25
4762492,484,36
4781220,324,4
4798888,2116,16
4818656,3721,100
4839464,169,100
4859216,121,25
4877932,169,4
4895608,100,9
4913300,2704,225
4934096,784,361
4953848,625,0
4971532,961,36
4990252,121,64
5008964,36,25
5026648,121,9
5044348,64,1
5060988,729,0
5078652,25,0
5095300,16,25
5112976,0,16
5129624,256,25
5148328,144,16
5167052,4,0
5182664,25,4
5199296,81,9
5215940,225,4
5233604,289,0
5251300,1521,16
5271060,144,36
5289784,361,1
5307448,64,36
5325140,256,1
5342816,36,49
5360500,9,16
5377140,49,49
5394820,4,16
5411456,1,25
5428100,256,1
5445764,841,25
5464492,841,9
5482180,676,16
5500892,64,81
5518580,625,0
5536248,9,49
5552900,2304,49
5572660,10000,400
5594492,20164,676
5616336,2704,841
5637148,196,9
5654816,64,25
5672484,1296,0
5691212,2401,121
5712032,289,100
5731784,64,16
5749456,256,16
5768180,625,1
5785856,225,16
5804580,2704,64
5824344,361,169
5844112,25,25
5861776,9,64
5878408,225,16
5897124,1089,4
5915856,225,0
5933532,1156,9
5952252,441,1
5969944,49,4
5986588,1369,100
6007376,784,100
6027128,225,0
6044824,3025,9
6063540,1225,4
6082260,1,0
6097844,4,1
6113460,121,0
6131128,784,49
6149868,1521,196
6170656,100,64
6189384,625,4
6207052,81,25
6224732,16,4
6241388,121,4
6259064,529,25
6277780,729,64
6296488,841,16
6315224,64,16
6332904,676,0
6350576,484,49
6369304,9,9
6384904,361,16
6403616,361,81
6422340,81,4
6438980,121,0
6456668,9,49
6473300,64,16
6490984,9,0
6506576,1296,1
6525300,4624,81
6545048,1849,196
6565860,361,4
6583548,1444,16
6603304,100,1
6620980,144,9
6638668,1,0
6654276,4,1
6669864,225,1
6687532,100,9
6705228,625,36
6723940,16,9
6740584,25,36
6758264,36,16
6775952,4,4
6791548,36,9
6808180,16,1
6824816,25,1
6841456,196,0
6859148,289,16
6877860,36,49
6895540,81,0
6912188,81,1
6928828,4,0
6944420,64,4
6961048,121,9
6978756,961,9
6996420,49,16
7014104,9,1
7029688,169,1
7047380,100,1
7065060,49,1
7081700,0,0
7097296,81,0
7113952,4,4
7129540,400,1
7147216,81,4
7163856,16,4
7180496,169,9
7198172,441,1
7215848,169,4
7233524,4,9
7249148,900,0
7266816,361,36
7285540,100,4
7303228,1,4
7318828,144,4
7336496,400,81
7355212,16,36
7372912,4,0
7388508,36,9
7405140,121,1
7422828,4,25
7439472,64,1
7456100,1024,0
7474808,2601,81
7494572,3249,196
7515380,625,144
7535148,196,9
7552816,729,25
7571532,1369,49
7591292,1600,81
7611068,484,36
7629768,64,1
7646420,49,1
7663048,361,1
7680728,3025,81
7700500,361,169
7720252,4225,4
7738964,6241,225
7759772,256,16
7778508,225,16
7797220,1024,100
7818028,1369,25
7837776,81,16
7855460,676,9
7873136,729,1
7890808,2916,100
7911620,1089,144
7932428,9,25
7949052,64,1
7965680,36,4
7982328,841,64
8001056,64,64
8018744,289,64
8037460,225,1
8055140,784,324
8074884,2704,81
8094652,784,64
8113384,225,9
8131056,289,64
8149784,400,49
8168504,1600,49
8188260,2601,144
8209040,400,81
8227760,196,0
8245476,121,0
8263136,961,64
8281848,256,9
8299544,100,4
8317228,196,9
8334900,1,0
8350504,49,36
8368168,361,0
8385860,3025,100
8406648,1089,256
8427444,961,1
8445156,441,4
8462812,81,49
8480488,1849,81
8500264,1849,361
8521064,16,49
8538752,0,0
8554332,529,81
8573060,576,25
8591788,81,1
8608416,36,16
8626100,36,16
8643780,49,0
8660412,729,1
8678092,729,16
8696808,400,36
8715540,144,9
8733220,1369,4
8751928,3721,144
8772740,529,49
8791468,9,4
8807060,36,16
8824732,25,1
8841376,144,1
8859048,441,1
8876732,225,1
8894408,1,9
8910024,1849,225
8930812,1296,144
8951624,1024,16
8971388,81,49
8989060,121,4
9006716,16,0
9023368,1225,1
9042104,100,9
9059772,25,4
9076408,9,0
9092008,16,4
9108660,81,4
9125300,1,1
9140896,529,1
9158576,841,9
9176264,324,4
9193944,144,4
9211628,1,49
9228248,0,36
9244904,841,36
9263612,1444,225
9284408,256,64
9303144,1,0
9318744,400,0
9336420,196,1
9354104,25,4
9370724,64,0
9387376,1444,25
9407128,256,36
9425860,400,25
9444576,841,49
9463300,289,4
9480980,1,16
9497624,64,4
9514264,484,1
9531936,256,9
9549628,1600,169
9570424,169,196
9590192,9,16
9606812,256,36
9625532,961,49
9644264,9,1
9659844,625,4
9677528,16,0
9694172,169,1
9711864,225,49
9730580,1681,49
9750344,2304,144
9771148,4,121
9788824,529,36
9807536,196,49
9826244,144,9
9843932,576,36
9862656,64,25
9880320,1,0
9895924,2209,64
9915700,3136,289
9936496,361,64
9955224,625,4
9972904,1764,64
9992660,1156,81
10012416,25,4
10030092,2500,49
10050892,2401,81
10071696,841,121
10092500,100,36
10112260,100,1
10130984,144,16
10150736,36,0
10168420,484,36
10188180,625,169
10208980,1,1
10225608,100,16
10245388,4,16
10263068,225,1
10281768,121,36
10301540,9,9
10318184,25,0
10335848,25,0
10353532,25,4
10371220,0,16
10388900,0,4
10405532,36,4
10423220,81,9
10440904,9,4
10457528,0,1
10474172,81,4
10491856,324,1
10510592,121,169
10531376,0,225
10550092,25,36
10568832,144,441
10589628,25,169
10609392,529,4
10628088,484,144
10648916,9,1
10665548,196,25
10685304,36,4
10702992,324,16
10722748,256,1
10741468,4,0
10758096,225,1
10776820,256,4
10795548,25,16
10814264,25,1
10831936,36,16
10850668,0,0
10867304,49,4
10884980,0,1
10901624,0,1
10918260,169,1
10936972,324,16
10956728,121,4
10975464,9,1
10992100,100,1
11010816,196,9
11029552,9,4
11046188,81,25
11064900,225,1
11083624,361,1
11102348,1,9
11118988,144,0
11137696,144,0
11156416,121,4
11175140,121,1
11193860,36,0
11211540,81,49
11230260,225,25
11250024,144,1
11268732,121,0
11287452,49,0
11305140,25,0
11322820,0,9
11339460,49,36
11358168,4,9
11374820,81,4
11392504,81,1
11410180,9,16
11427864,144,16
11447620,900,81
11467376,64,64
11486100,36,4
11503788,4,4
11520416,9,16
11538100,4,9
11554736,36,4
11572428,16,9
11590096,0,0
11606736,64,1
11624412,484,16
11644180,169,16
11663944,4,0
11680576,49,9
11698264,25,0
11715940,0,4
11732572,4,0
11749220,81,0
11766900,64,0
11784588,9,1
11801216,81,0
11818888,16,0
11836592,1,1
11853216,16,0
11870904,16,16
11889604,25,64
11908344,16,4
11926024,0,1
11942664,36,4
11960336,64,1
11978032,1,0
11994672,64,9
12012344,4,1
12028988,169,1
12047696,400,36
12067448,25,64
12086176,64,36
12104912,289,9
12123616,100,16
12143376,36,25
12162108,225,4
12180828,144,64
12200580,1,64
12218260,16,4
12235948,0,81
12253612,121,25
12273380,121,4
12292088,169,36
12311868,64,1
12329536,1,4
12346172,64,9
12363856,49,16
12382580,1,16
12400260,49,36
12418976,144,4
12437708,196,4
12456420,256,25
12476176,169,16
12495948,36,4
12513628,484,4
12532332,64,9
12550008,0,0
12566668,400,4
12585376,529,49
12605140,0,9
12621772,4,0
12638416,9,4
12655052,81,25
12673776,256,36
12693548,1,16
12711228,121,4
12729940,64,25
12748652,324,16
12768424,961,49
12788176,441,121
12808984,121,4
12827716,81,0
12845384,900,0
12864088,400,36
12883852,225,9
12902580,81,9
12920256,121,1
12938972,484,9
12957712,16,0
12975384,625,25
12995140,9,0
13011768,169,25
13031544,441,9
13050272,441,4
13068976,169,25
13088736,196,25
13108508,25,4
13126184,100,4
13144900,121,49
13164664,64,49
13183384,4,4
13200016,1,0
13216656,9,0
13233300,0,9
13249948,1,4
13266576,1,9
13283224,4,25
13300904,16,1
13318584,64,1
13336260,121,1
13354972,36,4
13372664,64,0
13390336,169,16
13410104,25,9
13427788,49,0
13445468,81,0
13463136,1,4
13479772,64,0
13497460,144,0
13516188,16,16
13534904,64,9
13552572,289,1
13571288,256,1
13590032,324,4
13608752,676,4
13627460,441,36
13647220,169,9
13665948,9,1
13682568,361,9
13701300,81,16
13720020,225,9
13738736,625,36
13758504,16,4
13776180,121,0
13794896,100,1
13813620,1,16
13831304,400,1
13850028,676,16
13869776,361,25
13889544,9,4
13906176,0,4
13922800,841,100
13943616,441,196
13964424,121,36
13984172,441,36
14003932,625,100
14024748,4,9
14041380,64,4
14059056,16,0
14076740,144,4
14095468,169,36
14115220,121,4
14133940,289,4
14152656,4,16
14170340,9,64
14188016,4,100
14206736,225,0
14225468,576,25
14245220,25,0
14262900,361,1
14281620,16,16
14300336,25,0
14318020,36,36
14336748,16,1
14354420,25,9
14372104,1,4
14388748,121,0
14407468,729,25
14427232,169,1
14445940,25,16
14464660,196,9
14483368,441,36
14503144,169,0
14521856,36,0
14539536,324,0
14558264,121,25
14578028,121,1
14596732,256,0
14615452,16,9
14633156,196,49
14652900,961,36
14672656,1089,0
14692428,144,9
14711144,25,9
14728816,289,1
14747532,289,49
14767304,256,9
14786016,324,25
14805776,169,100
14826592,0,16
14844260,144,9
14862984,0,1
14879628,324,25
14899384,49,4
14917060,441,25
14936820,400,1
14955548,1,16
14973224,64,1
14990896,625,49
15010652,256,0
15029384,100,64
15049140,144,1
15067864,121,1
15086584,0,4
15103228,144,0
15121944,324,4
15140660,324,49
15160416,4,64
15178104,36,9
15195772,324,36
15215528,144,36
15235304,49,4
15252984,4,1
15269616,4,1
15286256,100,9
15304984,9,9
15321632,361,4
15340336,169,49
15360100,400,0
15378816,900,81
15398576,529,36
15418332,441,25
15438100,16,25
15456820,81,4
15474500,16,4
15492176,4,0
15508812,0,36
15526496,16,4
15544184,256,49
15563952,121,64
15583696,36,9
15601372,400,121
15622172,529,64
15641944,4,25
15659624,196,16
15679388,1,64
15697064,529,0
15715772,625,0
15734496,16,0
15752168,256,9
15770904,324,4
15789624,225,16
15809384,9,25
15827060,4,4
15843700,16,16
15862420,9,9
15879064,0,1
15895704,64,16
15914416,81,16
15933140,1,0
15949780,36,1
15967468,1,4
15984096,25,36
16002824,25,9
16020500,144,9
16039228,121,9
16057928,0,0
16074588,1,0
16091224,144,1
16109948,25,0
16127620,9,1
16144256,81,4
16161948,625,0
16180676,361,9
16199384,25,9
16217056,49,9
16234752,1,36
16252416,81,49
16271132,121,49
16290904,4,0
16307540,289,16
16327296,289,9
16346016,81,25
16364752,9,4
16381380,49,16
16400104,1,4
16416744,0,9
16433380,9,0
16450028,25,1
16467700,36,0
16485376,64,9
16503068,25,25
16521792,100,0
16540492,36,0
16558176,81,25
16576900,144,4
16595612,169,9
16614336,256,1
16633060,324,9
16651776,81,16
16670492,729,1
16689220,1764,100
16711060,441,100
16731856,36,16
16750564,324,49
16770352,36,4
16788024,16,4
16805696,1,16
16823380,0,9
16840028,49,25
16858740,4,81
16876424,4,0
16893064,4,16
16910744,0,9
16927368,169,0
16946084,121,16
16965856,4,4
16982496,4,0
16999136,25,16
17017844,121,81
17037624,49,25
17056348,1,1
17072980,16,9
17090664,1,9
17107300,16,4
17124968,0,16
17142656,1,1
17159300,64,4
17176980,121,25
17196732,49,25
17215456,121,1
17234188,196,9
17252912,1,4
17269544,100,1
17288260,64,9
17305944,4,4
17322584,49,4
17340248,36,16
17358992,64,1
17376668,25,4
17394340,4,1
17410976,4,1
17427628,9,9
17444268,36,1
17461932,36,1
17479612,0,0
17496268,1,1
17512896,169,0
17531612,225,25
17551384,64,36
17570100,100,16
17589852,49,4
17607536,36,4
17625224,1,0
17641868,64,1
17659540,289,0
17678248,16,4
17695940,169,36
17715696,16,0
17733380,196,1
17752104,36,16
17770828,49,0
17788504,16,1
17806184,0,4
17822820,16,1
17840508,9,0
17857144,4,4
17873780,81,4
17891468,9,1
17908100,16,0
17925772,9,9
17942428,9,25
17960104,9,1
17976740,64,4
17994432,16,0
18012100,4,16
18029792,1,16
18047456,144,1
18066172,144,25
18085948,1,25
18103628,4,1
18120268,1,9
18136896,144,0
18155620,196,16
18175380,16,1
18193048,0,0
18209700,4,36
18227376,169,36
18247140,36,0
18264812,49,0
18282500,9,1
18299148,4,0
18315776,64,0
18333460,441,16
18353228,289,4
18371952,144,1
18390664,1,9
18407304,49,1
18424988,0,16
18442668,16,1
18460320,529,16
18480080,1936,64
18500908,256,81
18520664,49,1
18538344,0,9
18554992,144,9
18573712,100,9
18592420,9,1
18609048,25,0
18626736,9,0
18643368,16,0
18661052,81,0
18678724,81,0
18696428,1,25
18714108,0,16
18731768,9,49
18749464,49,49
18768184,81,4
18785860,169,1
18804580,441,144
18825384,144,144
18846176,64,49
18864892,81,25
18883632,9,36
18901308,36,4
18918972,81,1
18936668,4,1
18953312,4,0
18969948,4,1
18986580,9,16
19004264,36,9
19021940,256,0
19040668,64,1
19058328,49,9
19076008,144,9
19094740,81,0
19112416,1,0
19129056,16,1
19146732,81,4
19164432,196,4
19183160,169,0
19201864,1,1
19218500,169,0
19237228,1,25
19254892,81,4
19272568,16,0
19290260,9,0
19306912,4,0
19323540,324,0
19342244,81,0
19359944,4,0
19376572,36,25
19395296,4,36
19412972,1,1
19429632,121,0
19448348,169,1
19467048,900,16
19486824,1600,36
19507620,16,25
19526340,121,1
19545056,9,4
19561704,0,81
19579372,324,49
19599140,484,36
19618896,324,64
19638660,900,9
19657368,49,81
19676088,1369,25
19696904,2209,64
19717692,2116,100
19739536,441,16
19759304,25,0
19776976,361,9
19795692,676,289
19816500,529,196
19837308,81,9
19854980,841,49
19874732,81,49
19893464,121,9
19912176,1024,121
19934020,1225,289
19955860,225,16
19975612,0,25
19993300,9,4
20009936,1,0
20026580,100,1
20045288,576,0
20064012,225,16
20083784,49,9
20101460,16,16
20120172,529,1
20138888,1024,64
20159712,121,121
20180508,100,4
20199208,49,4
20216900,0,4
20233548,1,0
20250176,4,1
20266824,1,1
20283468,196,16
20303220,400,16
20322988,196,1
20341688,9,4
20358344,0,36
20376016,16,16
20394740,36,0
20412412,4,0
20429068,0,1
20445696,1,0
20462336,1,0
20478972,0,9
20495636,9,9
20512260,100,0
20530972,36,0
20548672,0,1
20565308,36,0
20582976,81,16
20601704,16,9
20619388,16,0
20637064,100,9
20655776,9,9
20672412,0,0
20689064,4,1
20705700,36,1
20723380,100,1
20742096,4,1
20758740,16,1
20776412,36,1
20794092,25,0
20811764,16,0
20829460,16,0
20847148,1,1
20863784,16,324
20883544,4,1849
20903300,81,1024
20924100,256,1
20942816,36,4
20960508,1,16
20978184,0,25
20995860,1,25
21013540,4,1
21030180,0,1
21046828,1,1
21063456,0,0
21080092,0,0
21096736,0,9
21113388,1,9
21130024,1,0
21146656,0,0
21163300,0,1
21179948,1,1
21196580,0,4
21213220,1,9
21229868,1,4
21246504,1,1
21263128,0,1
21279776,4,0
21296420,0,0
21313072,1,1
21329692,4,4
21346348,4,9
21362976,0,16
21380652,1,9
21397292,0,9
21413940,0,1
21430580,0,0
21447212,0,9
21463856,1,16
21481540,1,1
21498180,0,1
21514808,0,0
21531452,0,0
21548100,4,0
21564740,4,0
21581384,9,1
21598012,16,1
21615696,4,0
21632340,0,0
21648972,0,1
21665608,0,4
21682256,0,9
21698896,0,0
21715540,1,4
21732184,1,9
21748820,0,4
21765460,0,1
21782088,0,9
21798744,1,1
21815384,0,1
21832020,1,4
21848656,0,4
21865292,0,9
21881948,0,9
21898580,0,4
21915220,1,4
21931856,0,9
21948504,0,4
21965140,0,4
21981772,0,4
21998412,0,1
22015056,0,0
22031704,1,1
22048340,0,1
22064972,1,4
22081616,0,9
22098256,0,1
22114896,0,4
22131536,0,4
22148180,0,1
22164820,0,1
22181456,0,4
22198092,0,1
22214740,0,1
22231380,0,1
22248012,0,1
22264652,0,1
22281304,0,4
22297944,0,4
22314584,1,9
22331220,0,9
22347860,0,0
22364508,1,0
22381136,4,1
22397780,1,1
22414420,0,1
22431060,0,1
22447688,0,0
22464340,0,0
22480984,0,4
22497616,0,4
22514252,0,1
22530888,1,0
22547540,0,0
22564184,0,1
22580824,0,1
22597460,0,1
22614104,0,1
22630736,0,1
22647372,0,1
22664012,0,0
22680664,0,1
22697304,0,1
22713932,0,0
22730572,0,0
22747220,0,0
22763864,1,0
22780492,0,0
22797132,0,4
22813788,1,0
22830420,0,0
22847052,0,0
22863692,0,0
22880336,0,0
22896980,0,1
22913624,1,1
22930248,0,0
22946900,1,0
22963532,0,0
22980172,0,0
22996820,0,0
23013468,1,1
23030100,0,0
23046732,0,1
23063376,0,1
23080020,0,1
23096668,1,4
23113292,0,1
23129932,0,4
23146584,0,4
23163224,0,4
23179852,0,1
23196492,0,9
23213136,1,0
23229776,0,0
23246420,1,0
23263052,0,0
23279700,1,1
23296340,1,9
23312980,0,9
23329620,0,9
23346260,0,9
23362900,1,4
23379540,1,4
23396180,0,1
23412820,0,0
23429460,1,0
23446104,1,1
23462732,0,0
23479380,0,1
23496016,0,9
23512652,1,4
23529304,0,1
23545940,0,1
23562580,0,1
23579212,0,4
23595852,0,25
23613540,0,9
23630180,0,0
23646812,0,0
23663448,0,0
23680100,1,0
23696744,0,1
23713380,0,0
23730016,0,1
23746660,0,1
23763300,0,0
23779928,1,0
23796584,1,1
23813224,0,1
23829868,0,0
23846492,0,0
23863132,0,0
23879784,1,1
23896420,0,1
23913060,0,0
23929700,1,1
23946340,0,4
23962980,0,1
23979612,4,0
23996248,0,4
24012908,1,4
24029540,0,4
24046180,1,4
24062812,0,1
24079460,1,1
24096096,0,0
24112732,1,1
24129368,0,0
24146028,0,0
24162672,0,1
24179304,4,1
24195936,1,0
24212592,1,1
24229232,1,1
24245852,0,4
24262504,1,9
24279140,0,1
24295776,0,9
24312408,0,25
24330100,4,9
24346748,1,25
24364420,0,25
24382092,0,1
24398732,0,0
24415388,9,0
24432028,64,9
24449700,1,9
24466336,0,4
24482980,4,4
24499620,0,1
24516252,0,4
24532896,1,9
24549540,0,4
24566180,1,4
24582820,0,9
24599456,1,9
24616108,4,4
24632740,1,9
24649372,0,9
24666016,1,9
24682660,0,1
24699304,9,0
24715932,36,1
24733612,4,4
24750260,0,4
24766900,1,1
24783540,1,1
24800164,0,1
24816820,4,1
24833456,1,1
24850084,0,0
24866732,4,0
24883380,1,1
24900012,0,9
24916656,0,4
24933300,0,1
24949936,0,4
24966572,0,1
24983216,0,1
24999852,1,4
25016496,0,0
25033132,0,1
25049772,0,4
25066408,1,1
25083060,1,1
25099692,0,1
25116328,1,0
25132968,0,1
25149624,0,1
25166260,0,1
25182896,0,4
25199524,0,4
25216184,0,1
25232812,0,9
25249460,0,25
25267124,0,4
25283784,0,4
25300412,0,4
25317048,0,0
25333692,1,0
25350344,0,4
25366980,0,1
25383620,1,1
25400244,4,9
25416912,0,9
25433540,0,4
25450176,0,1
25466816,0,0
25483464,0,4
25500092,0,9
25516732,0,4
25533364,0,4
25550020,0,4
25566660,0,0
25583288,0,0
25599920,0,0
25616576,0,0
25633208,0,0
25649856,0,1
25666496,0,0
25683140,1,0
25699776,0,1
25716416,0,1
25733048,4,0
25749700,0,1
25766332,0,1
25782972,0,4
25799608,0,1
25816256,0,0
25832888,1,0
25849532,0,1
25866164,0,1
25882828,1,0
25899452,0,0
25916092,0,0
25932728,0,1
25949380,0,1
25966020,0,1
25982656,1,0
25999284,0,0
26015940,0,0
26032572,0,0
26049212,0,1
26065844,0,9
26082496,1,9
26099136,0,9
26115780,0,4
26132416,1,1
26149060,0,1
26165700,0,4
26182336,1,0
26198976,1,1
26215624,1,1
26232256,1,0
26248888,0,4
26265528,0,4
26282184,1,0
26298812,0,1
26315456,0,4
26332096,1,1
26348740,0,4
26365368,0,16
26383048,4,16
26400724,0,25
26418416,0,0
26435060,1,4
26451700,0,9
26468324,0,4
26484980,0,4
26501620,1,1
26518256,0,4
26534896,0,9
26551552,1,4
26568172,1,4
26584820,0,4
26601456,1,1
26618100,0,4
26634740,1,4
26651376,1,0
26668004,0,9
26684660,0,9
26701304,1,1
26717936,0,4
26734572,0,4
26751224,0,0
26767860,1,0
26784500,0,9
26801136,1,4
26817784,0,4
26834416,0,4
26851056,0,0
26867684,0,4
26884336,0,16
26902024,0,1
26918656,0,0
26935292,1,0
26951940,1,0
26968572,0,1
26985224,0,0
27001864,0,1
27018500,0,0
27035132,0,0
27051772,0,0
27068408,0,0
27085060,0,1
27101688,0,1
27118340,0,0
27134964,0,0
27151624,0,1
27168252,0,0
27184892,0,4
27201532,1,0
27218180,0,0
27234816,0,1
27251456,0,1
27268088,1,1
27284740,0,9
27301380,0,9
27318024,1,1
27334644,0,0
27351296,0,0
27367932,0,1
27384568,0,4
27401204,0,9
27417856,1,16
27435536,0,36
27453212,0,16
27470900,1,4
27487540,0,4
27504172,0,1
27520804,4,0
27537452,0,9
27554096,0,0
27570744,1,4
27587380,1,1
27604020,0,1
27620660,0,1
27637292,0,0
27653944,0,1
27670572,0,4
27687232,1,1
27703848,0,4
27720492,0,4
27737140,0,0
27753780,0,0
27770416,0,1
27787056,0,1
27803704,0,1
27820340,1,9
27836980,1,4
27853628,0,9
27870260,0,4
27886896,0,0
27903532,0,1
27920184,0,9
27936820,0,1
27953460,0,9
27970092,0,9
27986740,1,9
28003380,0,16
28021060,0,9
28037704,0,1
28054328,0,0
28070980,0,0
28087620,0,0
28104252,1,0
28120900,0,1
28137540,0,4
28154192,1,4
28170812,0,1
28187456,0,1
28204104,0,1
28220740,0,0
28237372,0,0
28254020,0,4
28270656,0,0
28287304,1,4
28303940,4,0
28320580,1,0
28337220,0,1
28353860,0,0
28370488,0,0
28387132,0,1
28403780,0,0
28420416,0,0
28437064,1,0
28453700,0,0
28470340,0,0
28486976,1,0
28503612,0,1
28520252,0,16
28537940,0,9
28554580,0,4
28571208,1,0
28587864,4,1
28604500,0,0
28621140,4,0
28637772,1,4
28654416,0,0
28671068,1,4
28687700,1,16
28705372,0,9
28722016,0,1
28738656,0,0
28755300,1,0
28771940,1,1
28788568,0,0
28805220,0,0
28821860,0,0
28838492,0,0
28855140,0,1
28871776,0,0
28888408,0,0
28905052,0,0
28921704,1,0
28938340,0,1
28954976,0,4
28971612,1,0
28988260,1,0
29004904,0,1
29021540,1,0
29038176,1,0
29054824,0,0
29071460,0,0
29088100,0,0
29104740,0,0
29121372,4,0
29138016,1,0
29154656,0,4
29171292,0,1
29187928,0,0
29204584,0,1
29221220,1,1
29237864,0,0
29254496,0,0
29271148,0,0
29287784,0,1
29304412,0,4
29321052,0,0
29337704,1,0
29354344,1,4
29370968,0,16
29388652,0,36
29406344,0,16
29424028,1,0
29440648,0,0
29457292,0,1
29473944,0,1
29490580,0,0
29507220,0,1
29523856,1,1
29540500,0,0
29557140,0,1
29573768,1,9
29590420,0,1
29607068,1,9
29623712,1,16
29641372,0,0
29658012,0,1
29674656,0,0
29691300,0,1
29707944,0,4
29724572,0,4
29741224,0,1
29757860,0,1
29774496,0,1
29791136,0,4
29807780,0,0
29824420,0,0
29841052,0,0
29857700,1,0
29874344,0,1
29890988,0,4
29907616,0,4
29924256,0,1
29940900,1,0
29957536,1,0
29974180,0,0
29990816,1,1
30007460,0,9
30024104,0,1
30040728,0,0
30057372,0,0
30074024,0,1
30090660,0,4
30107304,1,9
30123928,0,9
30140580,0,9
30157220,0,0
30173852,0,1
30190488,0,4
30207140,0,0
30223784,0,0
30240424,1,4
30257056,1,4
30273700,0,1
30290340,0,0
30306980,0,0
30323616,0,1
30340260,1,9
30356900,0,16
30374580,0,0
30391208,0,1
30407864,1,9
30424488,9,16
30442180,4,1
30458808,0,9
30475464,1,36
30493140,4,4
30509768,0,4
30526416,1,1
30543060,0,0
30559692,0,1
30576336,0,9
30592968,0,4
30609620,0,0
30626264,0,1
30642892,0,9
30659520,0,9
30676180,0,1
30692812,0,1
30709464,0,1
30726092,0,0
30742736,1,0
30759372,0,1
30776020,1,1
30792648,0,1
30809304,0,1
30825940,0,4
30842572,0,0
30859204,0,0
30875856,0,0
30892488,1,0
30909140,0,9
30925776,0,4
30942420,0,0
30959052,0,0
30975700,1,0
30992324,0,1
31008980,1,0
31025620,1,1
31042256,49,4
31059928,81,16
31078664,9,9
31095292,0,0
31111932,1,0
31128584,0,1
31145224,0,0
31161852,0,0
31178488,0,0
31195128,16,0
31212828,81,16
31231532,25,9
31249220,0,9
31265864,0,9
31282500,0,1
31299132,0,1
31315772,0,0
31332420,0,0
31349064,0,0
31365688,0,0
31382336,0,1
31398980,0,1
31415632,0,1
31432260,1,1
31448892,9,0
31465536,4,0
31482184,0,1
31498812,0,1
31515452,0,0
31532096,1,0
31548744,1,1
31565376,0,1
31582024,1,1
31598672,1,4
31615308,0,1
31631932,1,1
31648576,0,1
31665216,0,0
31681856,0,0
31698488,0,0
31715132,0,1
31731784,0,1
31748420,0,0
31765052,0,1
31781696,0,1
31798340,0,1
31814980,0,1
31831612,0,1
31848252,0,4
31864904,0,1
31881536,0,0
31898168,1,0
31914812,0,0
31931460,0,0
31948112,0,0
31964740,1,4
31981372,0,1
31998008,0,0
32014648,0,0
32031292,0,1
32047936,0,1
32064580,0,9
32081216,0,9
32097848,0,4
32114488,0,1
32131140,0,1
32147792,0,0
32164420,0,0
32181064,1,1
32197692,0,1
32214344,0,4
32230984,0,1
32247612,0,0
32264264,0,1
32280900,0,1
32297532,0,1
32314172,0,4
32330824,0,1
32347460,0,0
32364092,0,0
32380732,0,0
32397388,1,0
32414020,0,0
32430660,1,0
32447292,0,0
32463944,0,1
32480580,1,0
32497220,0,1
32513852,0,0
32530504,0,4
32547152,0,1
32563772,0,4
32580412,0,1
32597056,0,0
32613700,0,1
32630344,0,4
32646980,0,0
32663624,0,1
32680264,0,1
32696900,1,0
32713528,0,0
32730184,0,1
32746824,0,1
32763464,1,1
32780092,0,4
32796744,0,9
32813388,1,4
32830012,0,1
32846656,0,0
32863308,0,0
32879940,0,1
32896572,0,1
32913212,0,1
32929860,0,1
32946500,1,1
32963132,0,4
32979776,0,1
32996420,0,0
33013060,0,0
33029692,0,0
33046340,1,0
33062984,0,1
33079620,0,1
33096252,0,0
33112888,0,0
33129540,0,0
33146184,0,1
33162824,0,0
33179460,0,0
33196092,0,1
33212728,0,0
33229372,0,1
33246028,0,4
33262660,0,0
33279300,0,0
33295932,0,0
33312572,0,0
33329224,0,0
33345856,0,0
33362492,0,0
33379132,0,0
33395780,0,0
33412420,0,0
33429060,0,0
33445696,0,4
33462348,1,9
33478976,0,0
33495620,1,1
33512248,0,0
33528904,0,0
33545540,0,1
33562168,1,0
33578812,0,1
33595448,0,4
33612100,0,4
33628732,0,4
33645376,0,4
33662028,0,4
33678656,0,9
33695292,1,1
33711928,0,0
33728576,0,0
33745220,0,0
33761848,0,1
33778496,0,4
33795148,1,1
33811784,0,1
33828412,0,0
33845052,0,1
33861700,0,4
33878340,0,4
33894984,1,0
33911620,0,0
33928260,0,1
33944900,0,1
33961532,0,0
33978180,1,0
33994820,1,1
34011464,0,1
34028100,1,1
34044732,0,4
34061384,0,1
34078020,0,0
34094652,0,1
34111288,0,0
34127936,0,0
34144580,0,0
34161220,1,1
34177864,0,0
34194500,0,1
34211136,0,0
34227772,0,1
34244412,0,1
34261060,0,0
34277700,0,0
34294332,0,4
34310972,0,1
34327620,0,1
34344260,0,1
34360896,1,0
34377528,0,0
34394180,0,1
34410820,1,0
34427452,0,0
34444088,0,0
34460736,1,0
34477380,0,0
34494020,1,1
34510656,1,0
34527304,1,1
34543944,0,4
34560572,1,4
34577212,0,1
34593872,0,0
34610504,0,1
34627128,0,0
34643772,0,4
34660412,0,1
34677060,0,0
34693704,0,1
34710328,1,4
34726980,0,1
34743620,0,0
34760248,0,0
34776900,0,0
34793552,0,1
34810180,0,0
34826812,0,0
34843452,0,0
34860112,0,4
34876740,0,0
34893372,0,0
34910012,0,0
34926660,1,0
34943300,0,1
34959944,0,1
34976580,0,0
34993220,0,4
35009860,0,1
35026492,0,1
35043132,0,1
35059780,0,1
35076420,0,0
35093056,0,4
35109704,1,1
35126344,0,1
35142980,0,0
35159612,0,1
35176252,0,1
35192904,0,1
35209544,0,1
35226172,0,0
35242808,0,0
35259460,0,0
35276100,0,1
35292728,0,4
35309372,4,9
35326020,1,9
35342656,0,4
35359292,0,1
35375936,0,0
35392584,0,1
35409220,0,1
35425852,0,1
35442492,0,4
35459148,0,4
35475784,0,0
35492408,0,4
35509056,0,1
35525700,0,1
35542336,0,9
35558972,0,4
35575608,0,4
35592264,0,4
35608912,0,1
35625532,0,1
35642172,0,1
35658816,0,1
35675460,0,0
35692104,0,4
35708732,0,4
35725380,1,0
35742016,1,0
35758652,0,1
35775300,0,4
35791940,0,4
35808584,0,4
35825220,1,0
35841848,1,0
35858504,0,0
35875152,1,0
35891784,0,1
35908416,0,4
35925064,0,1
35941700,0,4
35958336,0,4
35974980,0,0
35991632,1,1
36008260,0,1
36024888,1,0
36041532,0,0
36058184,0,4
36074820,0,0
36091464,1,0
36108092,0,1
36124744,0,1
36141388,0,4
36158024,0,4
36174648,0,0
36191300,1,0
36207940,0,1
36224572,0,1
36241208,1,0
36257860,4,4
36274508,1,0
36291132,0,0
36307768,0,4
36324416,0,1
36341060,0,1
36357692,0,4
36374332,0,0
36390980,0,1
36407620,0,0
36424248,1,0
36440892,1,0
36457536,0,0
36474176,0,0
36490808,0,0
36507452,0,0
36524096,0,0
36540736,0,0
36557372,0,1
36574012,0,0
36590664,1,0
36607312,0,0
36623944,0,0
36640572,0,0
36657216,0,0
36673860,0,0
36690492,0,1
36707140,1,1
36723788,0,0
36740416,0,0
36757052,0,0
36773692,0,1
36790336,0,4
36806984,0,1
36823620,1,1
36840252,1,1
36856900,0,0
36873544,1,0
36890184,0,4
36906824,0,4
36923460,0,0
36940100,0,0
36956728,0,0
36973380,1,1
36990032,1,1
37006664,0,1
37023304,0,1
37039936,0,1
37056580,0,4
37073224,0,9
37089860,0,4
37106492,0,1
37123140,0,0
37139784,0,1
37156412,0,9
37173052,0,1
37189696,0,0
37206344,0,4
37222984,0,1
37239612,0,0
37256260,1,1
37272904,0,4
37289532,0,1
37306168,0,0
37322824,0,1
37339460,0,0
37356092,0,1
37372732,0,1
37389380,0,1
37406024,0,4
37422652,0,1
37439288,0,0
37455936,0,0
37472580,0,1
37489212,0,1
37505864,0,1
37522508,0,0
37539148,0,0
37555772,0,1
37572412,0,1
37589056,1,0
37605704,0,1
37622332,0,1
37638972,0,0
37655616,0,0
37672256,0,0
37688888,0,0
37705536,0,1
37722188,0,0
37738820,0,1
37755452,0,1
37772092,0,4
37788740,0,0
37805376,0,0
37822012,0,4
37838652,0,4
37855304,0,1
37871944,0,4
37888576,0,1
37905220,0,0
37921868,0,0
37938508,1,1
37955132,0,0
37971772,0,0
37988408,0,0
38005060,0,0
38021688,0,0
38038328,1,0
38054976,1,0
38071624,0,1
38088252,0,1
38104892,0,0
38121536,0,0
38138180,0,1
38154808,0,0
38171448,0,0
38188096,1,0
38204728,0,1
38221384,1,1
38238020,4,1
38254660,0,0
38271296,0,0
38287928,0,0
38304572,0,0
38321228,0,1
38337868,0,1
38354492,0,0
38371140,0,0
38387780,0,0
38404420,0,0
38421056,0,0
38437700,0,0
38454340,0,1
38470984,0,1
38487612,0,0
38504252,0,1
38520904,0,9
38537536,1,1
38554172,4,1
38570812,1,1
38587460,0,1
38604100,0,0
38620744,0,4
38637380,0,4
38654008,0,0
38670660,0,0
38687288,0,0
38703928,1,0
38720584,0,1
38737224,0,1
38753864,0,1
38770488,0,0
38787144,0,0
38803784,0,0
38820424,0,1
38837048,0,0
38853700,0,0
38870344,1,1
38886984,1,4
38903612,0,1
38920260,0,4
38936900,0,1
38953528,0,0
38970172,0,0
38986820,0,1
39003460,0,1
39020092,0,1
39036740,0,4
39053384,0,1
39070016,0,0
39086652,1,1
39103292,0,0
39119948,1,0
39136588,1,0
39153216,0,4
39169856,0,36
39187548,4,9
39204180,0,0
39220820,0,0
39237464,0,0
39254100,0,0
39270740,0,0
39287372,0,1
39304012,0,0
39320660,0,0
39337300,0,0
39353932,0,1
39370572,0,1
39387212,0,0
39403860,0,0
39420492,1,0
39437132,0,0
39453780,0,0
39470416,0,1
39487052,0,1
39503692,0,1
39520340,0,1
39536980,0,4
39553620,1,0
39570252,0,0
39586896,0,0
39603536,0,0
39620180,0,0
39636820,0,1
39653460,0,1
39670104,1,0
39686728,1,0
39703376,0,1
39720020,0,4
39736660,0,1
39753292,0,1
39769944,1,1
39786580,0,1
39803220,0,1
39819852,0,1
39836492,0,4
39853140,0,1
39869784,0,1
39886424,0,1
39903056,0,1
39919696,0,0
39936344,0,4
39952968,0,9
39969612,0,1
39986260,0,4
40002900,0,4
40019540,1,0
40036180,0,0
40052824,0,1
40069468,0,0
40086092,0,1
40102736,0,1
40119380,0,1
40136020,0,1
40152652,0,0
40169288,0,0
40185936,0,0
40202584,0,1
40219212,0,1
40235856,0,4
40252508,0,0
40269144,0,1
40285772,0,1
40302408,0,0
40319060,0,0
40335700,0,0
40352328,1,0
40368976,0,1
40385616,0,1
40402264,0,1
40418888,0,0
40435544,0,1
40452188,0,1
40468820,1,1
40485468,9,4
40502092,81,0
40519780,49,9
40537460,1,4
40554096,1,1
40570728,16,4
40588420,4,16
40606104,0,0
40622756,1,1
40639384,1,9
40656016,0,0
40672660,9,1
40689292,4,0
40705932,36,1
40723620,49,0
40741300,0,0
40757940,16,4
40775616,1,81
40793304,1,576
40812024,4,484
40830744,16,81
40849464,36,1
40867148,49,9
40884824,81,16
40903528,49,36
40922260,9,49
40939948,1,9
40956580,9,36
40974248,16,16
40992980,4,64
41010664,4,144
41029372,225,196
41050180,36,25
41068900,64,900
41088656,1,225
41107368,36,64
41126112,64,256
41145848,64,100
41165620,36,81
41184336,25,841
41204108,16,729
41223856,4,100
41242580,49,4
41260268,1,81
41277936,16,4
41295624,1,9
41312244,9,16
41329940,64,0
41347624,9,25
41365288,1,9
41381940,0,1
41398576,4,0
41415212,36,64
41433936,121,529
41454744,49,81
41473464,0,9
41490096,36,121
41509852,64,0
41527544,36,49
41546276,1,196
41564984,25,441
41584736,64,256
41604500,100,256
41625288,256,1849
41647136,576,3969
41668972,484,1024
41690816,100,25
41710572,1,1
41727224,4,16
41744904,4,121
41763612,144,576
41784416,64,144
41804184,4,25
41821852,9,81
41839528,1,25
41857228,0,441
41875936,0,0
41892584,36,400
41912352,100,289
41933148,0,16
41950812,121,484
41971608,49,16
41990344,4,784
42009060,16,144
42028816,36,4
42046512,9,1
42063140,9,4
42079780,0,49
42097452,4,0
42114112,0,225
42132820,49,256
42152580,36,9
42170260,1,36
42187940,4,16
42205608,9,144
42224336,1,400
42243052,25,0
42260756,9,0
42277380,1,256
42296108,9,9
42312744,16,100
42332492,25,64
42351200,100,81
42370972,196,289
42391772,196,625
42412580,144,1089
42434404,81,324
42454180,121,121
42474992,1,16
42492664,1,144
42511384,0,4
42528020,16,16
42546736,16,0
42564416,9,64
42582104,1,36
42599776,4,441
42618492,49,1089
42639292,144,441
42660116,100,441
42680900,1,144
42699616,16,0
42717308,9,16
42734980,0,16
42752652,0,25
42770328,0,25
42788020,0,25
42805696,25,25
42824424,64,1
42842100,1,9
42858744,100,49
42878512,64,49
42897220,25,9
42914904,36,16
42933628,1,225
42952344,64,36
42971060,36,225
42990824,1,81
43008492,16,0
43026176,1,169
43044904,1,529
43063616,16,121
43083372,16,0
43101052,0,0
43117700,4,4
43134336,9,0
43150980,36,1
43168660,36,25
43187376,36,0
43205056,0,121
43223780,25,484
43243544,49,81
43262260,9,121
43280980,1,81
43298664,0,25
43316344,1,100
43335072,1,4
43351700,1,49
43369372,1,36
43387064,1,100
43405780,4,9
43422424,1,1
43439056,0,1
43455712,1,36
43473380,9,4
43490008,9,0
43506644,16,1
43524344,16,196
43544108,16,81
43562816,4,9
43579464,1,9
43596100,1,0
43612736,9,16
43630424,1,1
43647060,16,49
43665776,9,9
43682428,1,1
43699064,0,121
43717780,4,784
43736496,81,361
43756260,121,64
43776020,4,361
43794748,49,25
43813464,1,36
43831140,4,100
43849860,144,225
43870648,324,529
43891464,169,400
43912268,81,0
43929936,16,441
43949700,1,1444
43969440,9,1681
43989220,81,961
44008976,81,441
44028736,1,49
44046412,64,4900
44067216,36,1156
44088012,484,16
44107768,64,484
44127532,81,100
44147292,169,36
44167068,49,484
44186812,0,256
44205532,256,0
44224256,25,144
44244024,4,576
44262748,1,0
44279376,9,400
44298096,0,256
44316820,36,4
44334504,81,4
44352176,25,36
44370884,4,9
44387540,4,36
44405220,4,4
44421856,0,9
44438488,0,100
44457220,16,225
44476972,25,169
44496740,36,81
44515468,4,36
44533152,16,169
44552904,25,961
44572640,121,1296
44594512,225,484
44615296,49,100
44635056,49,169
44654824,9,49
44672492,0,256
44691216,4,36
44708908,9,1
44725556,49,25
44744264,16,1
44761936,4,16
44779628,9,1
44796260,0,1
44812888,100,81
44832652,196,169
44853460,64,100
44873212,0,144
44891936,25,4
44909628,25,121
44929384,25,196
44949132,64,36
44967852,16,25
44986600,4,9
45003220,0,4
45019860,4,16
45037536,1,49
45055212,16,484
45074980,81,1444
45095780,100,121
45116592,144,25
45136340,9,64
45154020,0,64
45171684,4,64
45189384,4,4
45206016,36,4
45223692,16,36
45242428,25,324
45262176,121,256
45282972,49,0
45300656,1,1
45317304,16,64
45336032,25,1
45353700,4,1
45370332,49,9
45388016,49,36
45406740,1,16
45424420,36,0
45442100,196,64
45461864,100,121
45482656,25,81
45501368,16,9
45519060,4,0
45535700,1,16
45553388,1,49
45571044,0,441
45589780,36,196
45609540,64,1
45627208,0,576
45645940,16,1024
45666728,16,64
45685456,0,36
45703136,81,225
45722900,81,256
45742660,64,16
45761384,49,81
45780112,1,225
45798824,64,169
45818572,81,289
45838332,16,1
45856028,4,625
45874728,4,1156
45894508,64,1024
45915312,49,361
45935064,36,1
45952740,9,4
45969380,9,1
45986036,1,25
46003704,16,4
46021384,25,144
46041144,64,324
46060900,49,4
46078580,4,441
46097296,121,484
46118108,9,64
46135776,36,81
46154496,25,289
46174260,9,9
46190908,16,121
46210660,0,256
46229376,16,256
46249140,9,49
46266820,49,169
46286580,100,361
46307384,64,4
46325060,9,64
46342728,4,324
46361452,36,1296
46382264,81,196
46402016,49,16
46420732,0,16
46438416,0,36
46456096,0,16
46473784,25,1
46491452,25,1
46509160,4,1
46525796,16,16
46544500,16,1
46562176,4,529
46580900,0,49
46598580,36,576
46618340,25,49
46637048,9,1
46653704,0,1
46670340,1,0
46686976,16,0
46704672,4,9
46721312,4,0
46737952,1,1
46754588,1,81
46772256,0,49
46789944,0,4
46806572,0,0
46823224,1,0
46839864,16,9
46857536,16,289
46877300,1,256
46896024,1,1
46912660,1,0
46929304,1,16
46946972,0,1
46963608,0,0
46980268,1,100
46998976,0,225
47017692,0,4
47034332,1,36
47052028,4,196
47070748,16,289
47090500,16,121
47110256,9,9
47126900,0,0
47143536,0,36
47161216,0,36
47178908,1,25
47196588,25,9
47214260,25,16
47232976,1,1
47249628,0,49
47267296,0,36
47284992,1,1
47301616,4,324
47320344,64,961
47340088,100,1156
47361936,144,1024
47383780,64,81
47402500,25,9
47420188,0,1
47436828,0,0
47453460,0,16
47471148,1,36
47488820,49,16
47507552,25,25
47526260,9,64
47543936,0,100
47562656,0,121
47581392,9,64
47599064,1,25
47616736,4,484
47635444,25,2304
47656264,144,900
47677048,49,100
47696816,36,400
47716584,16,100
47736348,4,144
47755068,16,9
47772744,0,81
47790420,1,81
47808100,1,529
47826820,36,16
47845544,1,36
47863216,16,49
47881944,1,9
47898576,4,16
47916272,25,0
47933932,1,0
47950584,1,16
47968264,16,16
47986972,49,289
48006736,25,225
48026492,64,25
48045228,25,9
48062908,1,1
48079544,1,0
48096176,4,49
48113860,4,64
48131540,1,64
48149216,1,49
48166896,9,1
48183548,9,289
48202268,25,484
48222020,1,0
48238660,0,144
48257376,36,25
48276096,16,4
48293776,1,576
48312496,49,1156
48333300,225,169
48354092,121,36
48373864,0,1
48390500,0,256
48409212,16,81
48427936,1,1
48444592,16,1
48462252,0,9
48478896,1,25
48496568,4,361
48515296,25,81
48534024,4,16
48551696,0,49
48569384,0,1
48586020,1,25
48603704,0,0
48620332,0,0
48636984,1,1
48653624,4,4
48670252,25,25
48688980,64,144
48708740,121,225
48729544,144,9
48748256,121,4
48766972,4,16
48784668,9,36
48802352,9,4
48818988,9,4
48835624,0,49
48853300,1,64
48870976,25,9
48888664,1,4
48905300,4,25
48922980,1,1
48939608,4,64
48957300,1,289
48976028,4,169
48994740,64,100
49014496,81,36
49033220,9,16
49050900,0,49
49068580,16,100
49088340,16,256
49108112,4,36
49125780,4,169
49144504,64,484
49164252,25,169
49184028,9,25
49201700,16,49
49220412,4,4
49237068,4,324
49255776,64,289
49275536,36,25
49294244,16,121
49314028,49,0
49331700,9,625
49350416,81,256
49370180,81,64
49388912,1,64
49406580,36,36
49425300,49,16
49444020,36,196
49463772,64,64
49482504,1,9
49499128,0,25
49516824,0,4
49533464,9,0
49550104,9,9
49566740,4,100
49585472,64,625
49605208,196,484
49626012,100,1
49644748,0,144
49663460,4,9
49680104,25,25
49698824,4,36
49716512,1,16
49734176,9,81
49751860,1,225
49770580,16,400
49790336,100,729
49811140,121,1
49829848,49,256
49849624,0,1
49866272,1,4
49882896,4,81
49900584,16,484
49920344,196,529
49941140,100,25
49960892,9,1
49977540,4,1
49994180,36,4
50011868,1,225
50030572,25,81
50049316,25,16
50068016,16,36
50086732,36,100
50106508,144,121
50127304,196,64
50147060,49,4
50164724,9,25
50182428,1,100
50201140,16,36
50219856,9,16
50237548,1,81
50255220,36,100
50274980,121,1
50293692,9,144
50312428,9,0
50329060,4,81
50346740,4,25
50364408,25,49
50383140,16,9
50400812,25,0
50418488,1,4
50435144,36,9
50452824,0,4
50469472,16,1
50487148,0,49
50504820,4,121
50523544,1,1
50540180,4,0
50556820,4,4
50573468,9,36
50591148,4,1
50607784,1,81
50625452,1,144
50644184,36,225
50663944,25,196
50683696,36,9
50701384,25,25
50720104,1,25
50737780,0,1
50754424,25,36
50773140,16,0
50790824,0,16
50808516,0,1
50825140,0,16
50842820,1,196
50861524,16,900
50881288,81,289
50901060,49,36
50919780,0,4
50936412,0,25
50954100,1,0
50970744,0,81
50988424,64,441
51008176,100,169
51028980,49,36
51047708,1,16
51065384,4,441
51084092,36,256
51103860,121,16
51123616,16,4
51141292,0,0
51157924,16,289
51177700,36,16
51196404,256,1521
51218248,144,256
51239068,81,81
51257780,1,121
51276496,9,25
51294176,0,25
51311864,16,1
51329532,1,36
51347208,1,625
51365940,16,961
51385704,81,16
51404408,25,64
51423140,1,16
51440832,49,49
51459540,9,25
51477216,25,9
51494896,1,100
51513624,81,1
51531304,49,196
51551052,9,16
51568744,4,16
51586424,25,4
51604092,0,100
51622816,9,64
51640512,25,9
51658180,16,9
51675852,0,16
51693532,9,0
51710176,36,81
51728904,4,36
51746588,25,4
51764268,4,16
51781948,0,81
51799620,81,36
51818340,36,1
51836020,1,64
51853712,1,36
51871384,64,1
51889052,100,0
51907780,25,0
51925452,0,1
51942092,16,36
51960808,196,64
51980580,64,4
51998260,4,9
52014900,4,0
52031544,9,36
52049228,1,25
52066904,36,16
52085616,144,49
52105384,100,169
52126184,0,25
52143864,49,1
52161532,25,0
52179228,625,16
52198976,784,121
52219792,9,9
52236420,25,324
52256168,196,81
52275936,49,25
52294676,0,100
52313388,9,25
52331056,9,0
52347704,1,4
52364336,1,36
52382028,25,81
52400732,16,16
52419464,1,9
52436108,4,64
52453776,9,36
52471460,64,4
52489136,144,4
52507868,49,0
52525540,25,9
52543220,1,81
52560908,36,1
52578588,4,9
52595228,169,4
52613940,121,16
52633704,25,16
52652420,0,1
52669060,16,1
52686740,169,64
52706500,324,121
52727296,81,16
52746024,4,1
52762668,0,0
52779300,9,0
52795948,4,1
52812580,225,9
52831312,81,9
52848984,16,1
52866660,100,0
52885368,81,0
52903064,49,1
52920740,4,4
52937388,4,36
52955052,100,9
52973788,36,0
52991460,1,4
53008100,9,4
53024728,81,9
53042416,64,16
53061148,1,4
53077772,25,0
53095460,4,0
53112112,49,0
53129772,25,0
53147452,4,4
53164100,25,0
53181780,16,0
53199468,4,1
53216088,121,0
53234828,1,1
53251464,196,4
53270168,64,16
53288892,9,4
53305544,100,1
53324260,324,4
53342980,49,9
53360672,49,4
53378340,256,9
53397056,49,0
53414736,81,0
53432420,324,0
53451148,9,4
53467784,36,0
53485452,121,0
53504180,625,16
53523932,256,9
53542664,49,0
53560340,64,0
53578028,0,1
53594656,256,0
53613372,289,1
53632100,81,0
53649780,0,4
53666420,121,4
53685136,36,1
53702824,9,0
53719460,49,4
53737132,49,1
53754816,4,0
53771468,9,1
53788104,196,0
53806824,256,16
53826592,1,1
53843232,36,4
53860904,36,1
53878588,4,1
53895224,25,0
53912908,9,49
53930572,256,4
53949308,100,4
53968036,1,4
53984676,9,4
54001300,25,1
54018976,169,4
54037712,16,4
54055380,64,4
54073056,16,49
54091772,169,16
54111548,225,1
54130264,4,1
54146896,144,9
54165628,64,0
54183316,1,1
54199936,4,0
54216580,0,0
54233228,4,1
54249868,289,1
54268568,529,0
54287288,196,9
54306028,49,1
54323704,16,0
54341376,81,0
54359060,144,4
54377792,225,9
54396500,196,0
54415220,4,1
54431868,0,4
54448504,0,4
54465140,100,0
54483860,121,1
54502588,0,0
54519220,256,16
54538968,256,16
54558740,0,9
54575376,4,4
54592016,0,0
54608648,1,0
54625300,64,0
54642996,81,0
54660664,25,1
54678340,144,4
54697060,225,9
54715780,36,4
54733460,4,1
54750100,9,4
54766740,100,1
54785448,169,0
54804180,25,4
54821852,0,1
54838508,1,0
54855136,16,0
54872820,1,1
54889452,100,4
54908176,16,4
54925876,144,1
54944572,400,4
54963300,64,4
54980984,121,1
54999692,324,4
55018420,196,0
55037148,256,16
55056904,16,0
55074588,289,1
55093300,256,16
55113072,0,4
55129704,9,0
55146332,64,1
55164020,144,1
55182736,25,1
55200412,16,0
55218088,0,4
55234736,144,4
55253464,81,1
55271136,0,0
55287768,1,0
55304424,9,0
55321056,4,0
55337692,81,0
55355368,81,9
55373056,9,0
55389692,9,4
55406340,36,0
55424020,64,0
55441696,25,0
55459380,144,0
55478100,9,0
55494740,0,0
55511380,25,9
55529052,25,25
55547776,25,4
55565468,4,0
55582108,1,1
55598732,16,0
55616420,49,9
55634108,1,4
55650728,9,0
55667384,1,1
55684008,49,1
55701700,225,16
55721452,81,36
55740184,0,1
55756820,1,4
55773460,9,1
55790108,81,1
55807776,64,1
55825472,4,1
55842100,4,0
55858740,0,4
55875376,9,0
55892020,16,9
55909712,64,36
55928416,49,9
55946100,4,0
55962740,144,16
55982504,25,36
56001224,49,4
56018896,121,1
56037620,16,9
56055292,1,0
56071940,9,0
56088584,196,4
56107304,169,1
56126020,49,0
56143700,121,4
56162420,49,0
56180100,4,0
56196744,1,16
56214420,4,16
56232108,4,36
56249776,81,1
56267460,100,121
56288260,25,121
56308024,0,25
56325692,0,1
56342332,36,0
56360020,9,9
56376668,1,25
56394332,81,16
56413060,196,1
56431780,25,9
56449452,4,9
56466096,16,0
56483776,100,1
56502500,324,1
56521220,289,0
56539940,49,4
56557620,0,9
56574264,25,0
56591928,144,1
56610648,16,4
56628344,36,4
56646028,100,0
56664736,289,16
56684488,441,64
56704264,9,16
56721948,16,4
56739628,144,1
56758344,9,25
56776028,441,9
56794744,676,36
56814492,1,1
56831140,289,0
56849864,196,0
56868580,49,25
56887292,1,4
56903952,4,4
56920580,36,4
56938264,0,25
56955944,9,0
56972580,16,9
56990260,4,36
57007940,1,1
57024580,64,0
57042260,196,0
57060980,4,4
57077620,144,0
57096340,144,1
57115052,0,0
57131696,0,4
57148336,144,1
57167072,441,16
57186820,0,9
57203452,625,1
57222180,196,16
57241952,1,1
57258580,196,36
57278336,256,49
57298104,4,0
57314736,25,0
57332416,25,16
57351132,4,0
57367780,25,9
57385468,4,1
57402108,4,1
57418728,36,9
57436428,0,16
57454096,0,16
57471772,16,0
57489464,49,0
57507140,441,1
57525852,225,4
57544584,4,1
57561216,400,16
57580980,169,25
57600744,0,1
57617376,0,1
57634024,0,0
57650656,1,0
57667296,81,1
57684976,121,0
57703700,16,9
57721388,64,0
57739052,289,1
57757784,196,1
57776508,4,1
57793136,121,4
57811864,25,1
57829552,49,1
57847208,25,9
57864892,4,9
57881544,1,1
57898180,64,4
57915864,9,1
57932496,169,25
57952252,169,4
57970972,16,0
57988652,81,16
58007380,4,0
58024028,225,9
58042748,81,36
58061456,1,25
58079132,1,0
58095780,121,36
58115532,324,16
58135296,81,1
58152984,16,4
58170672,324,4
58189380,225,9
58208100,1,25
58225780,16,0
58243472,64,4
58261140,100,16
58280896,0,0
58297540,0,0
58314184,144,1
58332892,400,0
58351624,400,1
58370352,1,0
58386988,64,16
58405696,1,1
58422340,1,16
58440024,36,4
58457704,144,0
58476416,81,4
58494100,1,4
58510740,25,0
58528420,9,0
58545056,100,0
58563784,100,4
58582500,1,0
58599136,4,4
58615776,100,4
58634500,121,16
58654256,36,25
58672972,4,16
58690668,4,4
58707316,1,4
58723944,121,0
58742660,196,9
58761376,49,0
58779060,16,0
58796744,36,4
58814416,169,16
58834184,16,9
58851868,81,4
58869540,16,25
58888272,16,1
58905944,4,4
58922572,9,64
58940260,4,64
58957940,1,1
58974584,0,1
58991212,9,0
59007860,169,1
59026572,169,0
59045296,49,4
59062984,529,1
59081696,484,25
59101472,25,4
59119144,36,0
59136808,16,0
59154496,81,0
59172188,400,4
59190912,9,9
59207536,256,4
59226260,36,16
59244972,4,0
59261616,25,9
59279288,49,0
59296984,1,25
59314664,1,1
59331292,1,4
59347940,4,4
59364584,0,1
59381220,4,9
59397860,1,1
59414496,81,9
59432176,196,9
59450908,100,16
59470660,4,49
59488344,49,4
59506016,441,9
59524732,100,4
59543456,4,1
59560096,0,0
59576736,25,0
59594416,9,0
59611056,25,0
59628748,81,0
59646424,36,1
59664096,1,0
59680732,0,1
59697384,16,0
59715060,100,4
59733780,4,4
59750424,25,4
59768100,100,4
59786812,64,0
59804496,16,1
59822172,9,0
59838816,25,0
59856504,4,1
59873140,25,1
59890820,4,4
59907460,1,0
59924100,81,1
59941780,121,9
59960508,1,4
59977140,0,4
59993772,16,1
60011448,16,1
60029148,121,0
60047864,100,1
60066584,4,1
60083224,0,16
60100908,36,1
60118572,25,4
60136248,16,0
60153948,1,4
60170580,1,1
60187212,0,0
60203864,1,0
60220508,9,0
60237144,49,0
60254812,49,1
60272504,25,1
60290180,4,4
60306816,0,0
60323456,1,4
60340092,1,0
60356748,25,1
60374424,100,1
60393132,36,1
60410824,196,1
60429552,225,16
60449308,1,25
60466984,25,1
60484664,81,9
60502344,49,9
60520024,4,9
60536656,64,16
60555380,441,36
60575144,100,100
60595932,0,900
60614652,1,484
60633388,1,2209
60653128,49,7744
60673932,400,3721
60695784,225,225
60716588,49,0
60734252,9,9
60750896,0,0
60767548,1,25
60785220,1,0
60801852,0,25
60819544,4,1
60836188,1,0
60852820,9,9
60869460,0,0
60886100,1,4
60902752,4,0
60919380,1,1
60936020,1,4
60952656,0,0
60969300,1,0
60985932,0,0
61002576,1,0
61019224,4,0
61035860,1,4
61052500,0,4
61069132,0,0
61085780,0,0
61102420,4,1
61119052,0,1
61135688,1,0
61152344,0,0
61168988,0,4
61185620,1,1
61202252,1,0
61218892,0,4
61235536,0,0
61252184,0,0
61268824,0,1
61285460,0,0
61302104,0,1
61318732,0,4
61335368,0,0
61352020,0,0
61368660,0,0
61385292,1,0
61401928,0,0
61418580,1,1
61435220,1,0
61451860,1,0
61468500,0,0
61485140,0,1
61501780,0,0
61518424,0,1
61535052,0,0
61551708,1,0
61568344,0,0
61584968,0,0
61601612,0,0
61618264,1,1
61634896,1,0
61651532,0,0
61668184,0,1
61684832,0,0
61701460,0,0
61718096,0,1
61734732,0,0
61751380,0,0
61768024,0,1
61784664,0,1
61801296,0,1
61817944,0,1
61834576,0,0
61851212,0,0
61867860,0,0
61884512,0,1
61901140,1,1
61917772,0,0
61934412,0,0
61951060,0,4
61967700,0,4
61984340,0,0
62000976,0,1
62017620,1,1
62034256,0,0
62050892,0,1
62067544,0,4
62084188,0,0
62100816,0,0
62117452,1,1
62134104,1,1
62150744,1,1
62167392,0,1
62184024,0,0
62200652,0,0
62217300,0,0
62233936,0,0
62250568,0,0
62267224,0,1
62283860,0,0
62300496,0,0
62317128,0,0
62333768,0,0
62350420,0,0
62367060,0,0
62383700,0,0
62400332,0,1
62416976,0,0
62433620,0,0
62450248,0,0
62466896,0,0
62483556,0,1
62500180,0,0
62516808,0,1
62533452,0,1
62550100,0,0
62566736,0,0
62583380,0,0
62600012,0,1
62616660,0,0
62633300,1,0
62649928,0,0
62666568,0,0
62683224,0,1
62699860,0,0
62716492,0,0
62733132,0,1
62749776,0,0
62766416,0,0
62783064,1,1
62799704,1,0
62816336,0,0
62832980,0,1
62849612,0,1
62866256,0,4
62882900,0,1
62899536,0,0
62916172,0,1
62932808,0,0
62949460,0,0
62966100,0,0
62982728,0,0
62999368,1,0
63016016,0,0
63032656,1,0
63049288,0,0
63065928,0,0
63082584,0,4
63099220,0,1
63115852,0,0
63132500,1,0
63149140,0,1
63165780,0,1
63182416,0,1
63199056,0,1
63215700,0,9
63232340,0,4
63248972,0,0
63265608,0,0
63282264,0,4
63298908,1,4
63315540,1,4
63332172,0,4
63348820,0,0
63365456,1,9
63382100,1,16
63399784,1,1
63416420,1,0
63433064,0,1
63449700,0,0
63466332,0,4
63482980,1,1
63499620,0,0
63516256,0,1
63532892,0,1
63549540,0,1
63566180,0,0
63582820,1,0
63599464,1,1
63616100,0,0
63632744,0,1
63649368,0,1
63666012,0,1
63682656,0,0
63699300,0,0
63715932,0,1
63732580,0,0
63749212,0,0
63765856,0,0
63782488,0,0
63799132,0,1
63815780,0,0
63832416,0,0
63849052,1,9
63865700,1,9
63882340,1,0
63898968,0,0
63915608,0,0
63932248,4,0
63948900,4,0
63965540,0,1
63982172,0,9
63998820,1,16
64016512,1,1
64033144,0,1
64049772,0,4
64066412,0,0
64083056,0,0
64099700,1,0
64116340,1,0
64132976,0,0
64149620,0,0
64166260,0,1
64182896,0,1
64199544,0,1
64216188,0,0
64232824,0,1
64249456,0,4
64266092,0,0
64282740,1,0
64299384,0,1
64316024,0,1
64332664,0,9
64349300,0,4
64365936,1,0
64382568,1,1
64399208,0,16
64416900,0,4
64433540,0,0
64450168,1,0
64466812,1,0
64483456,0,0
64500096,0,0
64516740,1,0
64533372,0,0
64550020,1,0
64566660,0,0
64583292,0,0
64599928,0,0
64616580,0,0
64633220,1,0
64649852,0,0
64666492,0,1
64683132,0,0
64699776,0,0
64716424,1,0
64733060,1,0
64749696,0,1
64766340,0,1
64782972,0,0
64799616,0,1
64816264,0,4
64832896,0,0
64849540,1,0
64866180,1,0
64882820,0,1
64899460,1,0
64916092,0,0
64932732,0,0
64949376,0,0
64966016,0,0
64982652,0,0
64999304,1,1
65015940,1,1
65032576,0,0
65049224,1,4
65065860,0,0
65082500,0,0
65099136,1,0
65115780,1,4
65132412,0,4
65149064,0,4
65165700,4,4
65182328,1,0
65198972,0,0
65215616,0,4
65232260,0,9
65248892,0,16
65266572,0,9
65283224,0,1
65299868,0,1
65316484,0,0
65333128,0,9
65349788,0,1
65366428,0,1
65383048,1,0
65399696,1,0
65416340,0,0
65432976,0,0
65449612,0,1
65466252,0,1
65482896,0,64
65500584,0,729
65519292,16,529
65539052,36,0
65556740,0,64
65574424,4,25
65592096,0,36
65609780,1,4
65626436,1,4
65643060,1,100
65661780,0,49
65679460,16,1
65697136,0,4
65713772,4,1
65730420,0,64
65748096,0,49
65765780,0,81
65783448,4,256
65802172,9,100
65820908,9,0
65837528,0,36
65855220,0,25
65872896,1,9
65889548,4,4
65906176,1,4
65922812,0,729
65941540,4,625
65960264,49,4
65977944,1,0
65994576,0,4
66011224,4,9
66027868,0,36
66045536,0,25
66063212,9,1
66079856,0,0
66096500,4,1
66113132,0,1
66129780,4,1
66146424,0,1
66163060,1,0
66179692,4,4
66196328,0,1
66212980,0,81
66230672,1,16
66248336,0,1
66264984,1,0
66281628,0,9
66298268,1,0
66314908,1,1
66331536,0,441
66350260,4,961
66368968,49,441
66388740,4,841
66407464,81,100
66427220,4,676
66445948,0,16
66463620,100,144
66484436,4,196
66503132,36,64
66521848,9,1089
66541620,4,1225
66561388,16,16
66580088,36,1
66597776,0,49
66615468,0,196
66634172,4,64
66651852,9,1
66668492,4,0
66685144,1,4
66701776,0,25
66719452,0,0
66736084,0,4
66752736,4,4
66769384,0,49
66787060,0,1
66803700,4,0
66820344,0,1
66836980,0,0
66853612,4,0
66870244,0,0
66886908,1,1
66903548,1,0
66920184,1,0
66936808,1,256
66955544,4,225
66974260,16,1
66991940,1,9
67008592,1,1
67025216,0,0
67041852,0,0
67058492,1,4
67075136,0,9
67091780,1,25
67109460,0,0
67126100,1,0
67142744,0,0
67159388,1,1
67176012,0,1
67192648,0,9
67209300,1,0
67225948,1,0
67242584,0,1
67259212,0,4
67275860,0,0
67292500,0,1
67309144,1,1
67325780,0,1
67342420,0,0
67359064,0,1
67375692,1,0
67392344,0,0
67408988,0,1
67425628,0,0
67442256,0,1
67458892,0,9
67475540,0,1
67492180,0,1
67508812,0,9
67525460,0,0
67542108,1,1
67558744,0,1
67575380,1,0
67592012,0,4
67608664,0,4
67625308,1,0
67641936,0,4
67658572,0,1
67675216,0,0
67691864,0,0
67708488,0,1
67725136,0,4
67741780,0,0
67758408,0,4
67775060,1,0
67791692,0,1
67808340,0,1
67824984,0,1
67841624,0,1
67858248,0,0
67874900,0,1
67891540,0,1
67908180,0,1
67924820,0,1
67941464,0,1
67958104,0,1
67974732,0,0
67991376,0,0
68008012,0,0
68024660,0,9
68041304,0,1
68057936,0,1
68074576,0,0
68091216,0,0
68107864,1,1
68124508,0,1
68141140,0,0
68157780,0,0
68174416,0,1
68191052,0,0
68207708,1,0
68224348,0,4
68240980,0,0
68257612,0,1
68274256,0,0
68290900,0,1
68307536,0,1
68324176,0,0
68340832,1,1
68357460,1,0
68374080,0,4
68390732,0,0
68407388,0,0
68424016,0,4
68440648,1,0
68457288,9,0
68473940,1,1
68490576,0,0
68507212,0,0
68523864,0,1
68540504,0,1
68557140,4,1
68573772,0,9
68590412,0,0
68607056,0,0
68623700,0,4
68640344,0,0
68656972,0,0
68673624,0,1
68690260,0,0
68706892,0,0
68723540,0,1
68740188,1,0
68756820,0,0
68773452,0,4
68790092,0,0
68806736,0,0
68823388,1,1
68840012,0,0
68856652,1,0
68873300,0,4
68889944,0,1
68906580,1,1
68923216,1,4
68939868,0,0
68956500,1,0
68973128,0,4
68989772,1,0
69006416,1,0
69023068,0,4
69039696,0,0
69056332,1,1
69072980,0,4
69089616,0,0
69106264,0,0
69122900,0,4
69139548,1,0
69156180,0,1
69172812,1,4
69189460,0,0
69206096,1,0
69222740,0,4
69239380,0,0
69256012,0,0
69272660,1,0
69289300,0,1
69305932,0,0
69322576,0,4
69339224,0,1
69355860,0,1
69372496,0,1
69389128,0,0
69405788,1,0
69422432,0,0
69439064,0,1
69455700,0,0
69472340,4,1
69488980,0,0
69505612,0,0
69522264,1,1
69538912,1,1
69555540,0,0
69572172,0,1
69588812,0,0
69605460,0,1
69622112,0,1
69638744,0,1
69655372,0,0
69672024,0,1
69688660,0,1
69705292,0,0
69721936,1,0
69738592,1,0
69755224,0,0
69771852,0,4
69788488,0,0
69805140,0,1
69821776,0,1
69838420,0,9
69855056,0,4
69871708,0,1
69888340,4,0
69904976,1,0
69921620,0,16
69939308,4,0
69955948,16,0
69973616,16,1
69991300,9,4
70007944,100,4
70026664,289,100
70047456,36,36
70066164,81,9
70083864,0,36
70101552,400,4
70120264,169,16
70140032,1,0
70156668,121,1
70175384,256,0
70194096,0,16
70211788,1,0
70228428,49,1
70246104,144,16
70265864,16,1
70283548,36,49
70302260,16,1
70319940,9,1
70336588,4,0
70353228,64,9
70370888,289,289
70391696,100,784
70412496,0,784
70431224,9,256
70449944,36,9
70467624,36,9
70485296,100,196
70506100,64,144
70525856,9,4
70542500,1,9
70559140,49,4
70576816,16,1
70594500,1,16
70612188,4,1
70628816,16,4
70646484,100,16
70666256,64,81
70684984,81,100
70704744,400,4
70723460,400,441
70744260,289,256
70765060,121,4
70783780,0,0
70800424,1,4
70817068,361,9
70835776,441,25
70855536,289,0
70874264,256,0
70892980,0,4
70909612,324,1
70928340,289,16
70948096,121,0
70966824,25,4
70984496,9,0
71001152,36,9
71018832,36,4
71036504,196,0
71055212,1600,64
71076024,2116,196
71097860,729,81
71117612,16,9
71135304,121,4
71154020,1,4
71170652,64,0
71188344,121,0
71207060,4,4
71223696,64,16
71242412,121,25
71262164,1024,4
71281940,400,100
71302744,1,25
71320420,729,0
71339140,4,4
71355776,2601,64
71376572,400,196
71397380,9,4
71414020,400,16
71433780,625,100
71454580,1024,16
71475396,1156,64
71496184,64,144
71515932,324,1
71534668,529,121
71555456,784,4
71574176,36,1
71591856,100,4
71610588,1,1
71627212,576,25
71646984,1089,1
71666740,100,9
71685460,324,16
71705212,729,64
71724972,36,4
71742664,81,4
71760336,784,1
71779064,1225,49
71799860,676,100
71820652,289,4
71839360,4225,81
71860168,9,16
71877856,3844,196
71899696,2601,196
71921540,961,9
71940268,49,81
71958980,576,0
71977696,1600,196
71999544,676,36
72019308,49,4
72036972,81,4
72054664,1225,25
72075448,1764,16
72096248,3249,81
72117052,2401,256
72138912,1369,1
72158640,17161,484
72181540,6561,529
72203380,121,0
72222108,49,0
72239764,100,16
72259516,961,1
72278252,1024,9
72298016,2500,49
72318816,225,81
72338568,1936,9
72358324,8649,256
72380164,7225,484
72402012,4096,361
72423864,625,289
72444664,529,25
72464424,1444,9
72484172,729,81
72503932,100,9
72522656,0,1
72539308,16,1
72556980,4,4
72573616,1,9
72590248,441,16
72610012,961,49
72629784,169,64
72649544,324,9
72668280,169,4
72686988,441,1
72705696,625,25
72725448,9,0
72742108,64,16
72760816,256,0
72779536,1296,64
72800344,196,81
72820100,9,4
72836736,49,9
72854424,784,0
72873132,49,25
72891852,3721,121
72913700,1764,324
72935540,841,0
72954256,400,64
72974004,16,121
72993768,289,16
73013540,784,25
73033300,529,144
73054100,0,0
73070748,841,36
73090496,1936,9
73110252,729,49
73130008,484,49
73149788,2500,9
73169528,36,9
73187208,1936,81
73208032,0,25
73225708,676,49
73245448,4,1
73262104,2500,121
73283936,2500,169
73305780,1,36
73323436,100,4
73342188,4624,36
73362976,3481,144
73384812,1,1
73401452,400,16
73421228,324,4
73439936,2025,36
73460728,1156,4
73480492,2704,25
73501284,1849,324
73523132,441,4
73541856,256,121
73562664,225,9
73581368,1296,25
73602180,3481,1
73621928,400,100
73642720,2916,0
73662492,6400,441
73684344,1369,196
73706184,121,9
73724908,121,0
73743620,100,1
73762336,2500,144
73784168,8464,400
73806016,1681,196
73827864,484,4
73846588,16,1
73864268,25,4
73881948,0,0
73898572,25,0
73916260,9,4
73932900,441,0
73951616,676,36
73971360,2025,100
73993220,3600,81
74014020,3136,100
74035856,4624,121
74057688,1681,196
74079540,64,25
74098264,1,0
74114896,64,1
74132580,0,16
74150260,400,1
74168980,169,100
74189776,169,0
74208512,81,16
74227224,484,4
74245932,900,36
74265708,169,4
74284428,256,25
74304164,1600,144
74326008,361,16
74345784,841,81
74365532,5476,256
74387352,2916,400
74409212,676,64
74428956,961,0
74447684,7056,529
74469540,784,361
74490332,121,25
74510104,729,0
74528824,529,0
74547540,121,121
74568348,961,0
74587044,2116,196
74608904,225,25
74628656,81,1
74646332,841,1
74665056,64,49
74683776,49,36
74702496,961,25
74722248,3721,1
74742012,361,144
74762808,5041,196
74784652,1024,324
74806492,100,25
74826252,64,49
74844968,2209,169
74866812,1225,9
74886564,1156,1
74906332,484,0
74925044,2025,121
74946904,36,0
74964596,16,9
74982248,36,49
75000988,225,25
75020716,36,25
75039448,1600,144
75061300,100,25
75081056,324,100
75101860,64,1
75119520,324,81
75139304,1225,1
75159072,4,25
75176736,64,16
75195460,225,0
75214172,1,0
75230808,1764,49
75251612,529,121
75272420,1089,4
75292180,2704,121
75314012,784,16
75333776,729,16
75353532,1849,81
75374328,2209,81
75395144,2209,144
75416964,2025,196
75438804,3721,225
75460660,289,256
75481464,196,0
75500176,36,4
75517856,169,36
75537624,961,36
75557360,625,49
75577132,529,25
75596904,64,9
75614580,144,0
75633292,576,9
75652012,400,49
75671772,2401,25
75692580,12100,484
75715452,529,256
75736256,1849,64
75757068,529,16
75776832,1,9
75793452,676,16
75813220,324,4
75831940,36,49
75850652,961,64
75870424,1600,169
75892264,144,9
75910972,169,1
75929708,1225,0
75949464,1369,121
75971288,2704,196
75993132,1764,100
76014976,729,9
76033692,256,36
76053452,1089,0
76073220,25,16
76091948,324,81
76111696,529,49
76131444,25,9
76149132,2809,4
76168884,361,36
76188644,49,0
76206340,625,25
76226096,1444,25
76246900,1,36
76264592,100,25
76284340,9,1
76300976,36,0
76318640,5041,9
76338408,5625,289
76360256,1,49
76377924,2601,169
76399784,2809,121
76421620,49,1
76439292,1296,36
76460100,576,36
76479856,25,4
76497540,784,9
76516252,729,81
76536008,0,9
76552648,1225,9
76572416,289,4
76591136,576,16
76610908,64,1
76628584,484,36
76648340,289,36
76668104,16,4
76685776,4,1
76702404,225,4
76721132,3364,1
76740896,36,196
76760660,4489,4
76780420,1681,225
76802264,16,1
76819920,1089,25
76840736,2116,81
76861544,25,121
76881304,900,64
76901060,361,144
76921844,1156,16
76942664,784,81
76962420,324,49
76982184,729,25
77001932,529,1
77020648,1849,0
77040420,1444,121
77062268,400,64
77082028,25,1
77099700,4,9
77116340,1,1
77132984,4,16
77150648,841,0
77169376,900,121
77190188,289,9
77208900,676,0
77227612,529,36
77247372,25,4
77265068,100,9
77283784,289,0
77302492,625,16
77322228,64,81
77340976,4225,49
77361784,961,400
77382580,25,4
77400268,121,16
77420012,576,9
77438736,196,121
77459536,324,81
77479300,16,0
77496984,121,0
77515700,36,4
77533384,0,0
77550020,9,9
77566652,1681,16
77587444,1225,49
77608256,64,25
77626980,289,36
77646732,225,4
77665460,484,0
77684156,1444,81
77704968,3364,196
77726824,1,1
77743456,324,64
77763212,1024,36
77784000,1296,121
77805860,9,49
77823532,36,16
77842264,1,0
77858904,36,9
77876580,9,1
77893228,36,1
77910908,0,4
77927540,256,1
77946260,1600,1
77966016,529,49
77985776,1,1
78002420,49,16
78021144,169,4
78039864,361,16
78059608,81,4
78077296,4,9
78093932,0,0
78110580,4,4
78127224,121,1
78145944,81,49
78164652,81,4
78182336,49,4
78200024,81,1
78217696,64,0
78235372,196,36
78255136,484,4
78273860,900,256
78294664,324,9
78313372,16,4
78331068,729,9
78349776,576,196
78370572,441,121
78391388,676,16
78411144,144,16
78430896,1,49
78448568,484,49
78468340,1521,144
78490164,676,196
78510984,16,1
78528656,225,25
78548412,324,9
78567144,121,4
78585844,256,16
78605624,784,36
78625368,16,64
78644104,121,4
78662824,49,0
78680508,0,4
78697140,49,9
78714800,0,4
78731460,144,4
78750184,169,1
78768908,256,9
78787628,36,16
78806340,1,0
78822976,36,1
78840660,1,4
78857304,676,0
78876016,2025,36
78896812,1681,64
78917608,324,25
78937384,4,9
78954020,121,0
78972732,25,0
78990424,1,0
79007072,4,0
79023696,9,0
79040336,0,4
79056972,841,4
79075692,1296,81
79096492,36,16
79115212,1,4
79131868,1,25
79149544,529,1
79168256,36,100
79188024,0,0
79204668,49,1
79222340,16,16
79241048,784,1
79259784,841,36
79279544,36,4
79297220,484,36
79316968,64,9
79334660,289,25
79354408,81,4
79372096,484,4
79390832,361,1
79409536,1024,121
79431372,1936,169
79453220,361,25
79472988,144,4
79491704,900,144
79512492,841,100
79533308,529,1
79552020,169,49
79571772,289,100
79592580,961,81
79612340,256,49
79632100,25,4
79649764,25,36
79668504,361,1
79687216,961,49
79706976,1089,25
79727788,9,4
79744412,49,1
79762096,676,16
79781848,961,16
79801620,4900,36
79822416,2304,256
79844240,1521,49
79865060,2916,36
79885860,144,64
79905616,49,64
79924328,81,4
79942016,1156,36
79962812,1444,256
79984660,961,64
80004428,400,4
80023132,9,36
80040820,576,0
80059536,256,121
80080336,4,9
80096976,16,0
80114648,484,64
80134432,1369,100
80156252,2500,49
80177056,3249,100
80198904,961,225
80219692,625,16
80239456,324,36
80259224,25,25
80277936,225,25
80297696,484,9
80316412,196,64
80336188,1,0
80352820,64,16
80371532,400,1
80390264,4489,81
80411052,3249,144
80432888,841,121
80453684,1089,121
80475532,7225,289
80497368,7396,441
80519216,900,256
80540008,1156,64
80560812,169,100
80581608,3600,9
80601364,5929,324
80623204,1936,64
80644008,441,4
80662732,2601,16
80683544,961,225
80704332,900,121
80725140,441,36
80744892,16,1
80762572,121,9
80781280,2116,196
80803136,1444,289
80824968,900,9
80843684,7056,196
80865536,961,196
80886340,1024,1
80906104,25,9
80923780,1089,25
80944560,6889,81
80965368,12544,484
80988256,361,576
81009068,2500,16
81029856,676,100
81050660,64,4
81068340,1,81
81086004,1600,0
81105776,6241,576
81127616,4900,576
81149444,256,25
81169192,11881,64
81191056,19044,784
81213932,1369,900
81235780,4,16
81253468,100,0
81272192,324,1
81290900,324,49
81310648,1444,64
81331460,484,4
81350188,169,4
81368888,100,0
81387616,1089,49
81408424,121,0
81427128,0,196
81445852,196,144
81466660,441,25
81486408,900,169
81507212,1764,225
81529060,289,36
81548828,484,144
81569596,5041,100
81591460,3600,625
81613300,225,16
81633060,729,25
81652816,1,16
81670496,9,529
81689212,169,36
81708964,4,1024
81728748,36,0
81746412,36,100
81766172,1,9
81782816,225,16
81802588,121,0
81821296,49,9
81838984,9,0
81855620,169,4
81874336,4,225
81893052,9,784
81911776,25,81
81930500,0,100
81949228,0,16
81966904,16,256
81986660,0,484
82005372,49,1089
82026164,4,3721
82045932,144,361
82066744,256,0
82085460,0,16
82103132,25,400
82122912,36,676
82142656,144,169
82163460,9,196
82182192,100,841
82202984,121,289
82223784,25,4
82241456,4,36
82259152,1,36
82276824,324,625
82297620,729,1369
82319464,361,400
82340256,4,36
82357924,100,1089
82379768,225,841
82400580,144,25
82420324,100,2025
82442160,576,3249
82464016,256,144
82484824,4,121
82503528,64,729
82523300,81,676
82543048,225,1089
82564896,49,49
82583624,81,1849
82604420,1,1444
82624184,361,361
82644968,256,484
82665784,49,64
82684496,100,1
82703224,196,196
82724028,36,25
82742732,1,49
82760428,0,1
82777052,25,676
82796816,49,2025
82817612,100,361
82838420,144,64
82858192,16,169
82877940,64,100
82897704,81,1
82915384,36,400
82935152,196,961
82955932,64,576
82975696,36,1
82993376,121,100
83014180,25,4
83031856,49,2116
83052668,361,729
83073460,441,4
83092184,9,25
83109856,4,36
83127540,9,225
83146268,0,576
83164980,16,289
83184744,81,256
83204512,9,25
83222176,4,36
83239852,9,36
83257548,25,625
83277292,81,484
83297052,16,0
83314744,9,225
83333472,4,0
83350104,25,49
83368812,81,144
83388588,0,289
83407300,100,484
83428096,81,676
83447856,100,676
83468672,196,841
83489456,64,289
83509220,25,121
83528980,25,16
83547696,0,169
83566420,9,64
83584108,0,361
83602820,4,225
83621536,0,49
83639224,64,225
83658976,64,100
83678748,25,9
83696408,25,64
83715144,4,36
83732832,49,4
83750492,16,9
83768176,4,100
83786896,25,256
83806664,64,25
83825376,16,16
83844108,100,361
83864900,256,625
83885692,64,49
83904404,9,1936
83924168,324,900
83944980,100,100
83965780,9,81
83983460,9,16
84001136,0,36
84018816,25,289
84038576,49,121
84058356,1,1
84074980,1,49
84092660,4,121
84111388,16,36
84130096,49,1600
84150896,225,2209
84172724,324,484
84193540,25,0
84211224,0,81
84228900,1,9
84245548,9,324
84264252,0,961
84282972,100,484
84303772,100,36
84323548,9,256
84342260,36,256
84362024,1,4
84378664,16,4
84396336,0,144
84415064,9,1089
84434824,36,169
84454584,64,0
84472248,0,25
84489928,0,81
84507608,9,324
84526348,1,100
84545064,4,225
84563772,0,81
84581468,16,25
84600180,0,0
84616812,0,36
84634496,25,25
84653240,4,0
84669872,9,0
84686496,4,64
84704176,25,324
84723940,36,144
84743700,0,0
84760340,1,0
84776980,9,81
84794660,25,196
84814428,25,196
84834176,49,324
84853948,49,100
84873700,9,81
84891376,0,36
84909064,0,16
84926748,4,1
84943372,100,400
84964172,529,676
84984980,196,9
85003700,4,1
85020336,9,4
85036968,1,49
85054664,4,36
85072336,9,1
85088980,64,4
85106644,36,64
85125380,0,100
85144108,9,16
85161784,4,4
85178416,49,256
85198184,25,400
85217944,49,36
85236644,36,289
85256424,0,256
85275140,1,169
85293852,9,225
85312580,1,169
85331304,16,841
85351068,36,49
85369784,81,49
85388504,81,16
85407224,25,9
85424892,4,9
85441544,1,36
85459224,25,64
85477944,36,1
85495628,4,225
85514348,9,36
85532036,4,25
85549700,9,36
85567384,9,225
85586096,16,81
85604816,0,1
85621456,0,1
85638088,4,0
85654744,16,4
85672424,1,1
85689060,4,64
85706728,9,36
85724416,9,784
85743144,121,0
85761856,64,49
85780588,0,289
85799300,100,676
85820100,196,121
85840888,0,484
85859620,49,1681
85880416,4,196
85899148,1,121
85917872,1,36
85935536,0,400
85954248,36,81
85972972,36,9
85990680,1,1
86007308,16,1
86024980,9,100
86043708,1,25
86061392,9,4
86078024,4,25
86095700,0,0
86112340,9,169
86131072,0,256
86149780,9,36
86167456,16,81
86186188,1,256
86204896,9,100
86223612,9,9
86240252,16,100
86260012,144,81
86279768,64,81
86298500,9,144
86317224,64,324
86336972,196,576
86357788,100,529
86378584,49,256
86398340,169,81
86418096,289,49
86437856,49,1
86455540,4,49
86473220,0,36
86490896,0,169
86509624,1,25
86527300,0,1
86543936,9,729
86562668,1,64
86580344,0,16
86598016,49,324
86617776,64,100
86637524,1,144
86656260,4,9
86672900,0,4
86689540,64,9
86707224,1,16
86724904,1,49
86742584,16,9
86760252,0,4
86776900,9,4
86793540,1,4
86810180,1,1
86826812,1,0
86843472,1,36
86861140,9,256
86879852,1,144
86898580,1,1
86915240,9,1
86931876,1,16
86949528,25,100
86969296,4,961
86988016,0,676
87006752,0,144
87025460,0,0
87042108,4,49
87059780,4,256
87078488,4,16
87096180,9,225
87114912,0,25
87132588,1,1
87149224,9,16
87166892,25,169
87186660,25,16
87205372,9,4
87222024,0,1
87238672,0,36
87256340,4,4
87272988,1,16
87290660,4,49
87308344,9,1
87324980,4,0
87341624,9,36
87359296,25,784
87379068,225,2401
87400888,676,1849
87422744,784,1225
87444584,529,625
87465384,169,25
87485132,16,121
87504896,0,169
87523628,1,0
87540272,1,16
87557944,81,256
87577700,49,196
87597464,1,9
87614104,9,64
87631768,256,169
87652580,169,169
87673380,25,64
87692104,4,64
87709792,0,49
87727460,0,0
87744088,9,25
87761780,81,484
87781540,121,169
87802348,36,1
87820024,4,0
87836664,0,36
87854340,4,169
87873076,25,16
87891776,16,9
87909472,36,225
87929220,100,289
87950016,9,9
87966656,4,4
87983304,4,225
88002024,4,25
88019708,16,9
88037364,0,100
88056100,9,1
88072748,4,16
88090416,1,729
88109144,121,400
88129944,100,4
88148660,4,121
88167384,49,100
88187152,9,1
88203780,4,1
88220416,16,121
88240176,4,0
88256828,1,324
88275536,4,4
88292180,1,16
88309868,4,900
88328572,81,841
88348356,100,676
88369136,4,225
88387860,100,1
88406564,196,81
88426340,9,64
88444024,9,36
88461704,0,4
88478332,16,49
88497052,4,16
88514740,25,25
88533472,1,225
88552172,0,196
88570904,1,16
88588584,0,169
88607312,36,324
88627056,64,49
88645780,0,576
88664496,81,144
88684260,100,121
88705056,576,676
88725856,100,169
88746656,16,49
88765368,36,841
88785136,64,1089
88805932,100,64
88825700,16,25
88844416,36,121
88864172,36,64
88882904,16,144
88902648,16,16
88921380,36,0
88939048,100,100
88959856,16,121
88979632,16,121
88999384,169,400
89020172,441,729
89040972,49,676
89060732,64,4096
89081544,324,225
89102344,144,169
89123156,4,36
89140820,9,4
89157464,1,36
89175140,16,0
89192820,49,64
89211544,100,100
89232344,4,36
89250028,25,25
89268732,0,36
89286412,0,36
89304108,0,1
89320744,100,0
89339452,256,196
89360264,49,289
89380024,1,81
89397688,16,4
89415380,0,81
89433056,9,1
89449700,0,64
89467384,4,64
89485064,9,25
89502736,100,100
89523540,25,81
89542256,16,25
89560980,9,121
89579700,0,49
89597380,49,484
89617128,144,64
89636908,49,121
89656664,4,784
89675384,0,324
89694096,36,9
89711776,16,49
89730504,4,1
89747140,0,0
89763776,1,25
89781464,4,36
89799132,4,4
89815776,0,1
89832404,1,0
89849060,9,4
89865700,1,1
89882332,0,1
89898976,1,16
89916672,1,36
89934340,1,100
89953060,25,121
89972820,25,4
89990504,0,36
90008188,4,49
90025868,1,16
90043540,0,9
90060192,1,9
90076824,4,36
90094488,4,81
90112188,4,441
90130900,4,225
90149612,9,49
90167296,1,0
90183944,4,16
90201628,0,4
90218260,0,1
90234908,4,1
90251540,1,4
90268176,49,400
90287936,121,900
90308728,100,225
90329528,49,0
90347224,0,4
90363856,0,1
90380504,1,0
90397132,0,0
90413776,0,4
90430416,1,0
90447056,0,1
90463692,1,1
90480332,0,9
90496976,0,0
90513620,0,0
90530248,36,0
90547928,16,4
90565604,0,64
90583308,4,81
90600980,81,9
90618656,169,4
90637392,49,1
90655064,16,0
90672732,9,4
90689380,49,1
90707072,49,49
90725780,0,81
90743464,0,9
90760092,0,0
90776740,4,0
90793380,16,1
90811060,16,1
90828732,1,4
90845388,1,1
90862008,36,1
90879704,9,0
90896340,1,0
90912984,100,1
90931696,25,25
90950428,4,1
90967056,4,0
90983704,9,4
91000340,0,0
91016972,9,1
91033616,9,0
91050260,1,4
91066912,1,4
91083536,25,1
91101228,36,1
91118904,16,4
91136588,49,1
91154260,16,4
91171948,49,0
91189624,64,9
91207288,4,0
91223944,0,1
91240580,1,0
91257232,25,0
91274888,16,0
91292572,0,1
91309220,1,0
91325860,0,0
91342496,0,0
91359132,4,1
91375776,0,0
91392420,9,1
91409060,1,1
91425692,9,0
91442340,4,1
91458984,1,1
91475612,25,0
91493284,36,0
91510980,9,1
91527624,25,1
91545300,9,4
91561932,4,4
91578576,4,0
91595212,0,0
91611856,9,0
91628488,121,1
91647220,49,4
91664904,9,1
91681540,25,1
91699224,1,1
91715864,0,4
91732512,4,0
91749132,16,0
91766816,1,0
91783460,9,1
91800100,81,4
91817780,121,4
91836520,1,9
91853140,36,1
91870812,9,0
91887452,4,0
91904100,4,4
91920740,9,4
91937372,9,0
91954024,16,0
91971700,64,0
91989376,0,0
92006032,1,9
92022660,36,0
92040340,16,25
92059052,0,1
92075700,16,1
92093380,36,1
92111064,0,9
92127704,1,1
92144332,9,1
92160976,9,1
92177620,4,0
92194256,1,0
92210892,36,4
92228572,49,16
92247308,0,16
92264988,16,4
92282660,0,1
92299300,0,1
92315948,9,0
92332584,81,0
92350264,64,4
92367940,121,0
92386672,49,4
92404340,4,1
92420964,36,0
92438668,36,0
92456348,1,0
92472976,36,1
92490652,0,1
92507296,4,0
92523944,1,0
92540572,16,0
92558256,9,1
92574904,1,1
92591536,9,1
92608180,1,0
92624816,1,1
92641460,4,0
92658100,9,0
92674740,1,0
92691368,36,0
92709064,81,1
92726732,16,4
92744412,1,0
92761040,0,0
92777708,4,0
92794336,49,0
92812024,4,9
92828648,0,9
92845300,0,9
92861944,4,9
92878584,9,0
92895220,9,1
92911860,0,0
92928492,1,1
92945136,9,0
92961764,16,1
92979468,36,1
92997148,49,0
93014824,36,0
93032504,64,4
93050180,0,0
93066812,1,1
93083460,36,0
93101148,36,4
93118820,64,9
93136508,49,0
93154184,4,1
93170820,16,1
93188500,9,0
93205144,36,0
93222816,4,0
93239472,0,16
93257136,25,25
93275852,81,0
93293532,49,16
93312264,0,1
93328904,1,0
93345532,49,0
93363220,0,1
93379860,25,0
93397552,9,1
93414180,36,4
93431864,49,9
93449536,25,0
93467212,0,4
93483852,16,9
93501548,4,25
93519236,1,1
93535860,1,0
93552492,4,1
93569144,1,0
93585788,9,16
93603452,25,1
93621144,16,1
93638828,9,9
93655460,9,9
93672100,1,9
93688728,9,0
93705380,9,1
93722024,0,0
93738660,64,0
93756328,64,4
93774032,1,1
93790652,100,1
93809372,64,4
93827052,9,1
93843700,1,1
93860340,4,0
93876980,9,1
93893612,36,0
93911300,25,0
93928980,25,1
93946660,49,9
93964336,25,4
93982016,4,0
93998668,16,0
94016336,289,4
94035060,64,9
94052744,1,0
94069380,16,4
94087060,1,9
94103704,1,0
94120348,1,4
94136984,0,1
94153624,0,1
94170264,0,1
94186900,9,0
94203532,4,0
94220176,25,1
94237872,36,4
94255540,1,1
94272172,0,1
94288804,36,0
94306504,100,4
94325216,25,9
94342900,9,0
94359532,1,1
94376180,0,0
94392824,1,1
94409456,25,1
94427128,121,4
94445864,100,9
94464572,81,4
94482252,64,4
94499940,16,0
94517628,16,1
94535296,169,4
94554016,64,9
94571700,4,0
94588340,9,0
94604976,0,0
94621608,4,1
94638260,16,4
94655940,16,4
94673612,0,0
94690252,9,0
94706900,121,1
94725604,324,16
94745380,9,9
94762024,64,9
94779704,4,0
94796332,81,16
94815052,16,1
94832740,4,0
94849384,1,0
94866020,0,0
94882660,16,0
94900340,25,0
94918016,49,0
94935700,64,1
94953372,9,1
94970024,0,1
94986660,16,1
95004336,64,1
95022008,289,0
95040744,16,4
95058416,0,1
95075060,1,4
95091684,0,1
95108348,36,0
95126016,0,1
95142660,100,1
95161392,64,9
95179060,1,0
95195700,81,1
95213376,36,4
95231060,1,1
95247704,49,4
95265380,36,16
95284100,0,1
95300752,9,0
95317380,81,0
95335056,81,4
95352732,49,0
95370416,1,0
95387056,49,0
95404744,169,4
95423448,100,9
95442192,1,0
95458816,4,0
95475456,0,1
95492088,0,0
95508752,1,1
95525384,16,1
95543052,81,9
95560740,36,4
95578424,16,1
95596104,16,16
95614808,0,9
95631468,49,1
95649148,49,1
95666820,16,0
95684492,25,0
95702176,9,4
95718820,25,9
95736500,9,1
95753128,1,0
95769772,1,0
95786412,16,0
95804100,36,1
95821768,25,4
95839460,16,1
95857136,0,1
95873772,16,1
95891464,16,1
95909140,9,0
95925788,81,4
95943456,9,4
95960112,9,1
95976744,9,9
95993392,4,16
96011052,36,16
96029784,9,0
96046424,4,4
96063056,0,1
96079696,4,0
96096344,9,1
96112980,64,4
96130660,256,9
96149380,225,4
96168112,64,4
96185784,0,9
96202424,0,0
96219060,16,4
96236756,1,1
96253384,9,1
96270012,0,1
96286656,1,4
96303296,0,0
96319936,1,0
96336580,4,4
96353208,0,4
96369860,36,0
96387544,16,4
96405220,9,4
96421848,64,9
96439544,49,9
96457224,1,1
96473852,49,4
96491540,64,4
96509220,4,4
96525872,16,1
96543540,1,9
96560176,1,1
96576820,1,0
96593460,4,1
96610096,9,0
96626744,4,4
96643384,16,0
96661056,25,4
96678744,9,4
96695392,1,0
96712032,4,1
96728656,16,0
96746332,1,0
96762980,4,0
96779620,4,0
96796260,1,1
96812892,0,1
96829540,9,1
96846176,4,0
96862816,0,0
96879452,36,0
96897144,49,1
96914824,1,4
96931464,1,0
96948100,9,4
96964740,64,9
96982416,36,4
97000096,1,0
97016732,16,16
97035468,81,9
97053140,169,4
97071852,16,4
97089528,25,0
97107220,49,0
97124912,1,0
97141536,9,0
97158184,16,4
97175860,4,9
97192492,0,4
97209132,49,0
97226824,25,1
97244508,81,4
97262176,196,16
97281932,49,16
97300664,1,1
97317292,1,0
97333948,9,1
97350580,0,0
97367232,1,0
97383864,1,0
97400500,9,0
97417136,81,0
97434824,25,0
97452492,36,0
97470184,64,4
97487860,16,1
97505544,0,4
97522180,36,4
97539860,49,1
97557540,81,0
97575220,484,25
97594972,225,36
97614744,16,1
97632420,0,1
97649056,4,0
97665692,9,0
97682336,81,0
97700020,256,4
97718732,100,9
97737464,1,1
97754088,16,1
97771788,169,0
97790512,49,1
97808184,25,1
97825860,36,0
97843540,9,1
97860172,0,0
97876812,9,1
97893468,0,0
97910104,64,4
97927768,25,1
97945452,9,1
97962100,49,4
97979784,64,4
97997456,49,9
98015136,16,1
98032832,1,4
98049452,16,1
98067144,1,4
98083776,1,1
98100428,4,0
98117056,36,1
98134740,1,1
98151364,16,0
98169068,4,0
98185688,9,0
98202340,0,0
98218968,100,1
98237704,169,16
98257456,49,16
98276180,4,1
98292820,36,4
98310504,100,4
98329216,36,0
98346900,9,1
98363540,36,1
98381220,4,0
98397852,4,0
98414500,64,1
98432184,1,1
98448816,9,4
98465452,36,4
98483132,4,1
98499776,25,1
98517472,0,0
98534096,64,1
98551764,64,9
98569464,1,1
98586096,81,0
98603772,36,1
98621468,1,1
98638100,0,1
98654748,9,1
98671368,4,9
98688024,1,4
98704672,1,1
98721312,36,0
98738980,25,1
98756656,4,0
98773296,36,4
98790976,81,4
98808672,9,0
98825304,25,4
98842984,25,4
98860664,1,0
98877304,1,0
98893944,64,9
98911620,121,9
98930336,25,4
98948012,9,0
98964664,1,0
98981288,0,0
98997932,4,1
99014568,1,0
99031224,1,4
99047852,9,9
99064512,1,0
99081140,9,1
99097792,4,0
99114416,16,1
99132096,121,4
99150820,9,1
99167464,25,0
99185144,144,0
99203864,64,4
99221548,36,0
99239224,144,9
99257928,36,0
99275624,4,1
99292260,16,1
99309940,36,0
99327612,81,1
99345304,64,1
99362980,4,4
99379616,4,0
99396252,25,0
99413924,289,9
99432660,16,1
99450340,36,9
99468016,0,0
99484652,1,1
99501300,1,4
99517936,9,0
99534584,81,1
99552252,64,9
99569948,9,1
99586576,0,0
99603216,9,0
99619872,64,1
99637536,64,0
99655212,16,0
99672904,4,1
99689540,49,0
99707220,4,0
99723864,1,4
99740492,49,0
99758188,225,4
99776900,169,16
99796664,1,4
99813292,25,0
99830988,1,0
99847620,9,0
99864252,4,9
99880888,36,4
99898580,81,0
99916260,0,0
99932896,16,0
99950572,4,0
99967224,16,1
99984892,1,0
100001540,0,0
100019228,4,1
100036912,9,0
100054576,121,1
100074336,36,9
100093072,4,4
100110740,16,4
100129456,4,4
100147128,0,1
100164820,0,4
100182504,1,1
100200180,1,0
100217848,9,1
100235540,16,0
100254260,1,0
100271944,36,1
100290660,9,1
100308336,25,0
100327056,100,1
100346816,1,1
100364504,100,0
100384256,100,1
100404016,81,1
100422748,196,9
100442500,121,4
100462256,25,0
100480972,4,1
100498656,9,0
100516336,0,1
100534020,25,1
100552744,4,9
100570424,16,0
100589132,25,0
100607852,9,0
100625544,0,1
100643232,0,4
100660900,16,16
100680652,64,4
100699388,9,25
100718104,36,1
100736816,121,16
100757628,64,1
100776344,36,9
100795060,121,25
100815856,169,36
100836660,169,400
100858488,324,196
100880336,225,961
100902184,16,529
100922980,9,25
100941700,0,0
100959384,9,0
100977060,16,9
100995772,4,1
101013456,0,16
101032184,4,1
101049856,0,4
101067540,4,9
101085224,0,0
101102908,1,16
101121616,1,0
101139292,1,0
101156980,1,4
101174668,4,0
101192340,0,0
101210016,0,4
101227700,0,1
101245372,0,1
101263056,0,4
101280728,9,0
101298424,100,0
101318180,36,4
101336892,0,9
101354584,0,4
101372264,0,1
101389932,0,0
101407612,0,0
101425300,0,0
101442980,0,1
101460664,0,1
101478336,0,0
101496020,0,0
101513700,1,1
101531384,1,1
101549044,0,0
101566736,0,0
101584416,0,0
101602088,0,0
101619780,0,0
101637460,0,0
101655132,0,0
101672820,0,0
101690500,0,0
101708180,0,0
101725852,1,0
101743520,1,0
101761216,0,0
101778888,0,0
101796572,0,0
101814248,0,0
101831944,0,1
101849620,0,1
101867288,0,0
101884980,0,0
101902656,1,0
101920328,0,0
101938008,0,0
101955700,0,0
101973384,0,1
101991060,0,0
102008728,1,0
102026416,0,0
102044092,0,0
102061772,0,0
102079444,0,0
102097140,0,0
102114808,1,0
102132496,0,0
102150180,0,0
102167856,0,0
102185536,0,1
102203208,0,0
102220896,0,0
102238576,0,0
102256248,0,0
102273936,1,0
102291620,0,4
102309300,1,1
102326972,1,0
102344656,1,0
102362336,1,0
102380024,9,0
102397692,4,1
102415384,4,1
102433060,1,0
102450740,1,0
102468420,1,0
102486096,1,0
102503788,4,0
102521448,0,0
102539132,1,0
102556820,1,0
102574504,4,0
102592180,0,0
102609856,1,0
102627540,0,0
102645224,1,0
102662892,0,0
102680564,1,0
102698260,4,1
102715940,25,0
102734652,9,0
102752340,4,1
102770020,1,1
102787700,0,0
102805372,0,0
102823060,0,0
102840740,0,1
102858408,0,0
102876088,0,0
102893780,0,0
102911460,1,0
102929136,0,4
102946824,0,1
102964500,0,0
102982176,0,0
102999848,0,0
103017540,0,0
103035220,0,0
103052896,0,1
103070580,0,0
103088260,0,1
103105936,0,0
103123612,1,0
103141288,1,0
103158980,1,1
103176660,0,1
103194340,0,0
103212004,1,0
103229696,1,0
103247388,9,0
103265060,4,0
103282740,0,0
103300420,1,1
103318092,0,0
103335768,0,0
103353460,0,0
103371140,0,0
103388816,0,1
103406492,0,0
103424176,0,0
103441856,0,1
103459540,1,0
103477204,0,0
103494900,0,0
103512580,1,0
103530252,0,0
103547940,0,0
103565620,0,0
103583288,0,0
103600968,0,0
103618660,0,0
103636336,0,0
103654012,0,1
103671692,0,1
103689376,0,0
103707060,0,1
103724740,0,0
103742404,0,0
103760096,1,0
103777768,0,0
103795452,1,0
103813140,0,0
103830828,1,0
103848504,1,0
103866180,0,0
103883860,0,1
103901540,0,0
103919212,0,0
103936892,0,1
103954576,0,0
103972256,0,0
103989928,0,0
104007604,0,0
104025300,0,0
104042984,0,1
104060652,0,0
104078324,0,0
104096020,1,1
104113700,0,0
104131372,0,1
104149060,1,1
104166736,0,0
104184412,1,0
104202100,1,0
104219780,0,0
104237456,0,0
104255132,0,0
104272804,0,0
104290500,0,1
104308180,0,0
104325856,0,0
104343528,1,0
104361220,0,0
104378900,0,0
104396572,0,1
104414260,0,0
104431952,0,4
104449620,0,0
104467300,0,0
104484988,0,0
104502660,0,0
104520332,0,0
104538012,1,0
104555696,0,0
104573368,0,0
104591048,0,0
104608728,0,0
104626420,1,0
104644096,0,4
104661772,0,1
104679456,1,0
104697140,4,0
104714812,1,0
104732492,0,1
104750180,0,0
104767856,1,0
104785540,0,0
104803224,0,0
104820904,0,0
104838572,0,0
104856248,0,0
104873928,0,1
104891620,0,1
104909300,0,0
104926968,0,0
104944660,0,0
104962340,0,0
104980008,0,1
104997692,0,1
105015376,0,0
105033056,0,0
105050728,0,0
105068412,0,0
105086100,0,0
105103780,0,0
105121464,0,0
105139136,0,0
105156812,0,0
105174492,0,0
105192168,0,0
105209840,0,0
105227540,0,0
105245220,0,0
105262896,0,1
105280580,0,4
105298260,0,0
105315932,0,0
105333612,0,0
105351296,0,0
105368980,0,1
105386648,0,0
105404324,0,0
105422020,0,0
105439704,0,1
105457372,0,0
105475048,0,0
105492740,0,0
105510420,0,0
105528092,0,1
105545784,0,0
105563464,0,0
105581132,0,0
105598816,1,0
105616496,1,0
105634180,1,1
105651852,1,1
105669528,0,0
105687216,0,0
105704892,0,0
105722568,0,0
105740256,0,1
105757940,0,1
105775608,0,0
105793288,0,0
105810980,1,0
105828656,0,0
105846336,0,1
105864020,1,0
105881704,0,0
105899384,0,1
105917060,0,0
105934732,0,0
105952420,0,0
105970088,0,0
105987772,0,0
106005448,0,0
106023140,0,0
106040808,0,0
106058492,0,0
106076180,0,1
106093860,0,0
106111532,0,0
106129212,0,0
106146896,0,0
106164580,0,0
106182256,0,0
106199932,0,0
106217616,0,0
106235300,0,0
106252968,0,0
106270644,0,0
106288328,0,0
106306012,0,0
106323692,0,0
106341384,0,0
106359068,0,0
106376748,1,0
106394412,0,0
106412096,0,0
106429776,1,0
106447452,0,0
106465128,0,0
106482816,0,0
106500500,0,0
106518180,1,0
106535844,0,1
106553540,0,0
106571212,0,0
106588892,1,0
106606564,0,0
106624260,0,0
106641940,0,0
106659620,1,0
106677304,0,0
106694980,0,0
106712648,0,0
106730332,0,0
106748016,0,0
106765696,0,0
106783368,0,0
106801056,0,1
106818736,0,0
106836416,0,1
106854100,0,0
106871768,0,0
106889456,0,0
106907128,0,0
106924808,0,0
106942500,0,0
106960180,0,0
106977852,0,0
106995544,0,0
107013228,1,0
107030896,0,0
107048572,0,0
107066248,0,0
107083940,0,1
107101612,0,0
107119300,0,0
107136964,0,0
107154660,0,0
107172328,0,0
107190008,0,0
107207696,0,0
107225380,0,0
107243048,0,0
107260736,0,1
107278428,0,0
107296104,0,1
107313780,0,0
107331448,0,0
107349140,0,0
107366812,0,0
107384492,0,1
107402168,0,4
107419872,0,1
107437536,0,0
107455216,0,1
107472888,0,0
107490580,0,0
107508256,1,0
107525928,0,0
107543616,0,0
107561300,0,1
107578972,0,0
107596648,0,0
107614344,0,1
107632020,0,0
107649692,0,0
107667364,0,0
107685056,0,0
107702728,0,0
107720408,0,0
107738084,0,0
107755780,0,0
107773460,0,0
107791132,0,0
107808824,0,0
107826496,0,0
107844176,0,1
107861848,0,0
107879536,0,0
107897220,0,0
107914892,0,0
107932568,0,0
107950260,0,0
107967932,0,0
107985616,0,0
108003284,1,4
108020984,0,4
108038664,0,0
108056328,0,0
108074020,0,0
108091712,1,0
108109372,0,0
108127048,0,0
108144736,1,0
108162416,0,0
108180092,0,0
108197772,0,0
108215460,1,0
108233140,0,0
108250820,0,0
108268484,0,0
108286180,0,0
108303848,0,0
108321540,1,1
108339216,0,0
108356912,0,0
108374572,0,0
108392252,0,1
108409940,0,0
108427620,0,0
108445296,0,1
108462968,1,0
108480648,0,0
108498340,0,1
108516016,0,0
108533700,0,0
108551388,0,0
108569052,1,0
108586732,0,0
108604404,0,0
108622096,0,0
108639776,0,0
108657452,0,1
108675132,0,1
108692816,0,0
108710496,0,1
108728172,0,0
108745860,0,1
108763536,0,0
108781208,0,0
108798884,0,0
108816576,0,0
108834256,0,1
108851932,0,0
108869604,0,0
108887300,0,1
108904980,0,0
108922652,0,0
108940336,0,0
108958016,0,0
108975688,0,0
108993372,4,0
109011060,1,0
109028736,0,0
109046416,0,1
109064088,0,0
109081776,0,0
109099452,0,0
109117132,0,0
109134804,0,0
109152500,0,0
109170184,0,0
109187852,0,0
109205540,0,0
109223216,0,0
109240888,0,0
109258568,0,0
109276260,0,1
109293940,1,1
109311620,0,0
109329292,0,0
109346980,0,0
109364660,0,0
109382340,0,0
109400004,0,0
109417688,0,0
109435368,0,0
109453052,0,0
109470740,0,0
109488420,0,0
109506092,1,0
109523768,0,0
109541460,0,0
109559136,0,0
109576808,0,0
109594488,0,0
109612180,0,0
109629860,0,0
109647544,1,1
109665204,0,4
109682900,0,0
109700568,0,0
109718248,1,0
109735936,0,0
109753624,0,0
109771300,0,0
109788972,0,0
109806660,0,0
109824340,0,0
109842008,0,0
109859692,0,0
109877376,0,0
109895060,0,0
109912732,0,0
109930404,0,0
109948100,0,0
109965776,0,1
109983460,1,0
110001124,0,0
110018820,0,0
110036496,0,0
110054172,0,0
110071856,0,0
110089536,1,0
110107224,1,1
110124900,0,0
110142584,0,0
110160260,0,0
110177928,0,0
110195608,0,0
110213304,0,0
110230972,0,0
110248652,0,0
110266328,0,0
110284020,0,0
110301696,0,1
110319372,0,0
110337056,1,0
110354736,0,0
110372412,0,0
110390092,0,0
110407780,1,0
110425456,1,0
110443132,0,1
110460808,0,0
110478500,0,1
110496168,0,0
110513852,1,0
110531524,0,0
110549220,0,0
110566904,0,1
110584584,0,0
110602260,0,1
110619940,1,0
110637620,0,1
110655300,0,0
110672980,1,0
110690664,0,1
110708332,0,1
110726012,0,0
110743696,0,0
110761380,0,0
110779060,4,0
110796724,9,0
110814428,1,0
110832092,0,0
110849772,0,0
110867444,0,0
110885140,0,0
110902832,0,1
110920488,0,0
110938176,0,0
110955864,0,0
110973528,0,0
110991208,0,0
111008900,0,0
111026576,1,0
111044256,0,1
111061936,0,0
111079620,0,1
111097304,0,1
111114980,0,0
111132644,0,0
111150340,0,0
111168020,0,0
111185692,0,0
111203380,0,0
111221060,0,0
111238732,0,0
111256408,0,0
111274096,0,0
111291780,0,0
111309452,0,0
111327136,0,1
111344820,0,0
111362504,1,1
111380172,0,4
111397848,0,0
111415548,1,0
111433208,0,0
111450888,0,0
111468576,0,0
111486260,0,0
111503932,0,0
111521616,0,1
111539304,0,1
111556984,0,0
111574648,0,0
111592328,0,0
111610020,0,0
111627696,0,1
111645380,0,0
111663056,1,0
111680748,1,0
111698412,0,1
111716092,0,0
111733780,0,1
111751460,0,1
111769132,0,1
111786812,0,0
111804500,1,0
111822184,0,0
111839860,0,0
111857540,0,0
111875220,1,0
111892896,0,0
111910568,0,0
111928244,0,0
111945940,0,0
111963620,1,1
111981300,0,0
111998972,0,0
112016660,1,0
112034340,0,0
112052008,0,0
112069688,0,0
112087380,0,0
112105048,0,0
112122728,1,0
112140420,0,0
112158100,0,0
112175772,0,0
112193456,0,0
112211136,0,0
112228808,0,0
112246492,0,0
112264164,0,0
112281860,0,1
112299540,0,0
112317220,0,0
112334900,0,1
112352580,0,1
112370252,0,1
112387928,0,0
112405620,0,1
112423304,0,0
112440968,0,0
112458656,0,1
112476340,0,1
112494008,0,0
112511688,0,0
112529364,0,1
112547056,1,0
112564736,0,1
112582408,0,0
112600100,0,0
112617784,0,1
112635452,0,0
112653128,0,0
112670820,0,0
112688496,1,0
112706172,0,0
112723848,0,0
112741536,0,0
112759224,1,0
112776900,0,0
112794564,0,0
112812256,0,0
112829932,0,0
112847616,0,0
112865296,0,0
112882976,0,0
112900656,0,0
112918344,0,0
112936032,0,0
112953696,0,0
112971368,1,0
112989052,0,0
113006736,0,0
113024416,0,0
113042092,0,0
113059768,0,0
113077464,0,0
113095144,0,0
113112812,0,0
113130488,0,0
113148176,0,0
113165856,1,0
113183532,0,1
113201220,0,1
113218896,0,0
113236584,1,1
113254252,0,0
113271940,0,0
113289620,0,0
113307292,0,0
113324964,0,0
113342648,0,0
113360332,0,0
113378012,0,0
113395696,0,1
113413376,0,0
113431056,0,0
113448732,0,1
113466416,0,0
113484092,0,0
113501772,0,1
113519452,0,0
113537136,0,0
113554820,0,4
113572500,0,1
113590172,0,0
113607856,0,0
113625532,1,0
113643208,0,0
113660884,0,0
113678580,0,0
113696252,0,1
113713944,0,1
113731628,0,0
113749300,0,0
113766972,0,0
113784652,0,0
113802340,0,0
113820016,0,0
113837692,0,0
113855380,0,0
113873064,0,0
113890732,0,0
113908408,0,0
113926084,0,0
113943776,0,0
113961448,0,0
113979132,0,1
113996820,0,0
114014500,0,0
114032180,0,0
114049852,0,0
114067544,0,0
114085220,1,0
114102888,4,0
114120572,0,1
114138256,0,0
114155940,0,0
114173608,1,0
114191296,1,0
114208980,1,0
114226652,0,0
114244328,0,0
114262000,1,0
114279708,0,1
114297388,0,0
114315048,0,0
114332740,0,0
114350420,1,0
114368092,0,0
114385784,1,1
114403460,1,1
114421128,0,0
114438808,0,0
114456488,0,1
114474188,0,0
114491860,0,4
114509544,4,1
114527212,9,0
114544904,1,0
114562576,0,0
114580252,0,0
114597936,0,0
114615620,0,0
114633292,0,0
114650976,0,1
114668656,0,0
114686340,0,0
114704012,0,1
114721688,0,0
114739380,0,0
114757052,0,0
114774748,0,0
114792420,0,0
114810100,0,0
114827772,0,0
114845448,0,0
114863128,0,0
114880816,0,0
114898488,0,0
114916172,0,0
114933860,0,0
114951544,0,1
114969220,0,0
114986892,0,0
115004580,0,0
115022248,0,0
115039928,0,0
115057608,0,1
115075296,0,0
115092980,1,0
115110660,1,0
115128340,0,0
115146020,0,0
115163692,0,0
115181372,0,0
115199056,0,0
115216744,0,1
115234412,0,0
115252096,1,0
115269784,0,1
115287456,0,0
115305132,0,0
115322804,0,0
115340500,0,0
115358172,0,1
115375848,0,0
115393524,0,0
115411216,0,0
115428912,0,1
115446572,0,1
115464260,0,0
115481948,0,1
115499612,0,1
115517288,0,0
115534984,0,1
115552660,0,0
115570328,0,0
115588004,0,0
115605704,0,1
115623372,0,0
115641052,0,0
115658724,0,0
115676416,0,0
115694100,0,1
115711776,0,0
115729472,0,0
115747152,0,1
115764812,0,0
115782492,1,0
115800180,1,1
115817860,0,1
115835528,0,0
115853212,0,0
115870900,0,0
115888572,0,0
115906252,0,1
115923924,0,1
115941624,0,1
115959300,0,0
115976972,0,1
115994660,0,1
116012340,0,0
116030012,0,0
116047696,0,1
116065392,0,0
116083056,0,0
116100728,0,0
116118412,0,0
116136096,0,0
116153772,0,1
116171452,0,0
116189124,0,0
116206820,0,0
116224492,0,0
116242172,0,0
116259856,0,0
116277536,0,0
116295208,0,0
116312896,0,1
116330580,0,0
116348256,1,0
116365944,0,1
116383620,0,0
116401300,1,1
116418976,0,0
116436648,1,0
116454320,0,0
116472020,0,1
116489692,0,0
116507372,0,0
116525048,0,0
116542748,1,0
116560420,0,0
116578092,0,0
116595772,0,0
116613460,0,0
116631132,0,0
116648812,0,0
116666500,0,0
116684184,0,1
116701864,0,1
116719524,0,0
116737216,0,0
116754888,0,0
116772572,0,0
116790240,0,0
116807944,1,0
116825628,0,0
116843304,0,1
116860980,0,1
116878660,0,0
116896328,0,0
116914008,1,0
116931696,0,0
116949376,0,0
116967048,0,0
116984740,0,1
117002432,0,0
117020092,0,0
117037772,0,0
117055444,0,0
117073136,1,0
117090812,0,1
117108492,0,0
117126180,0,0
117143860,0,0
117161536,0,1
117179216,0,0
117196900,0,0
117214576,1,0
117232248,0,0
117249936,0,0
117267620,0,0
117285300,1,0
117302976,0,1
117320652,0,0
117338336,0,0
117356008,0,0
117373688,0,0
117391376,1,0
117409056,1,0
117426732,1,0
117444412,0,1
117462112,1,0
117479788,0,0
117497452,0,0
117515132,0,0
117532816,0,0
117550500,0,0
117568172,0,1
117585844,0,0
117603536,0,0
117621216,0,1
117638904,0,1
117656576,0,0
117674260,0,0
117691940,0,0
117709608,0,0
117727296,0,0
117744980,0,0
117762652,0,0
117780340,0,0
117798020,0,0
117815700,0,0
117833368,0,0
117851044,0,0
117868728,0,0
117886408,0,0
117904088,0,0
117921772,0,0
117939468,0,0
117957152,0,1
117974808,0,0
117992496,0,0
118010180,0,0
118027848,0,0
118045532,0,0
118063220,0,0
118080896,0,0
118098584,0,1
118116252,0,0
118133936,0,0
118151608,0,0
118169288,0,0
118186960,0,0
118204660,1,0
118222340,0,0
118240020,0,0
118257712,1,0
118275376,0,0
118293048,0,0
118310728,0,0
118328420,0,1
118346104,0,4
118363768,0,0
118381448,1,0
118399144,1,1
118416820,0,0
118434492,0,0
118452164,0,0
118469856,0,0
118487528,0,0
118505208,0,0
118522904,0,1
118540580,0,4
118558256,0,4
118575944,1,1
118593620,0,0
118611304,0,1
118628972,0,1
118646648,0,0
118664336,0,0
118682020,0,1
118699688,0,0
118717376,0,4
118735064,0,1
118752732,0,0
118770412,0,0
118788084,0,1
118805772,0,0
118823460,0,0
118841132,0,0
118858820,0,0
118876500,0,0
118894184,0,1
118911852,0,0
118929536,0,0
118947220,0,0
118964892,0,0
118982564,0,0
119000260,0,0
119017944,0,0
119035624,0,1
119053284,0,0
119070980,0,1
119088660,0,0
119106328,1,0
119124016,0,0
119141704,0,1
119159368,0,0
119177052,0,0
119194740,0,0
119212420,0,0
119230088,0,0
119247772,0,0
119265456,0,0
119283140,1,1
119300812,0,0
119318484,1,0
119336180,0,0
119353852,0,0
119371528,0,0
119389216,0,0
119406900,0,0
119424568,0,0
119442248,0,0
119459940,0,0
119477616,0,0
119495304,0,1
119512984,0,0
119530660,0,0
119548332,0,0
119566020,0,0
119583684,0,0
119601380,0,0
119619048,0,0
119636732,0,0
119654424,0,1
119672112,0,0
119689772,0,0
119707448,0,0
119725136,0,0
119742816,0,0
119760492,0,0
119778172,0,0
119795860,1,1
119813540,0,0
119831220,0,1
119848888,0,0
119866576,0,0
119884248,1,0
119901932,0,0
119919604,0,0
119937300,0,0
119954980,0,0
119972668,0,1
119990340,0,0
120008020,0,0
120025692,0,0
120043368,0,0
120061056,0,0
120078740,0,1
120096420,0,0
120114084,0,0
120131780,0,1
120149452,0,0
120167128,0,0
120184804,1,0
120202500,1,0
120220180,4,1
120237852,9,0
120255548,1,0
120273220,0,1
120290888,25,0
120309612,25,4
120328340,9,1
120346024,0,0
120363712,0,1
120381380,0,0
120399072,0,1
120416740,25,0
120435452,16,1
120454172,0,4
120471868,1,100
120491616,4,484
120511384,9,1156
120532180,36,784
120552980,225,4
120572728,121,676
120594568,16,4
120613284,64,4096
120635132,25,2809
120656964,324,784
120678828,49,676
120699628,16,9
120718344,1,49
120737064,16,121
120757860,9,16
120776580,25,100
120797376,49,16
120817140,4,64
120835864,16,36
120855620,289,1
120875380,256,9
120895132,0,25
120913840,49,144
120934660,484,169
120956504,81,49
120976256,81,0
120994988,729,9
121014744,441,64
121035548,36,1
121054260,49,49
121074024,49,1
121092732,121,81
121113528,100,25
121134344,64,16
121154104,36,49
121173852,0,9
121191544,25,0
121210264,121,16
121231060,49,1
121249776,25,4
121268508,81,25
121288252,400,4
121308012,324,4
121327792,576,1
121347540,196,25
121368332,64,25
121388116,25,0
121406832,36,4
121425548,100,1
121445304,324,25
121466108,121,9
121485868,1,16
121504580,81,0
121523308,9,1
121540980,81,0
121559700,64,16
121579444,0,4
121597140,16,1
121615860,16,0
121634580,100,1
121654348,81,0
121673068,64,0
121691780,0,0
121709448,0,4
121727144,0,1
121744824,4,49
121763540,1,81
121782260,16,1
121800984,9,25
121819704,4,4
121837384,81,49
121857148,121,1
121876896,1,0
121894576,4,0
121912248,9,1
121929944,4,0
121947616,225,0
121967384,225,9
121987144,36,4
122005864,64,1
122024572,81,16
122044340,64,1
122063060,169,9
122082828,169,1
122102584,49,16
122122348,81,0
122141072,36,9
122159788,4,4
122177460,1,4
122195140,81,49
122214896,64,0
122233628,9,16
122252340,4,0
122270020,49,16
122289772,81,16
122309536,1,1
122327224,25,0
122345940,121,1
122365700,49,1
122384420,64,49
122404180,25,36
122423932,16,0
122442648,36,4
122461380,144,16
122482180,256,0
122501928,144,0
122521700,36,1
122540424,81,1
122559136,81,4
122577848,100,0
122597636,64,1
122616344,256,16
122637132,81,9
122655860,36,0
122674580,441,4
122694332,169,25
122715148,36,9
122733856,484,0
122753616,196,4
122773384,25,0
122792108,4,0
122809776,9,0
122827456,144,1
122847212,225,9
122866984,64,9
122885692,9,0
122903376,16,0
122922108,25,1
122940820,1,0
122958504,49,4
122977216,64,1
122995952,4,1
123013620,81,1
123032332,49,9
123051064,0,4
123068752,25,0
123087464,100,0
123107220,16,0
123125936,9,0
123143612,64,1
123162344,121,9
123182112,0,1
123199776,144,36
123220576,25,49
123240332,25,0
123259060,25,9
123277780,1,0
123295460,169,0
123315216,900,36
123336028,289,25
123356820,16,4
123375536,4,16
123394268,4,1
123411928,0,9
123429616,9,9
123447292,36,9
123466024,64,0
123484732,25,16
123504492,9,1
123522184,144,9
123541940,144,0
123561704,64,4
123580408,441,9
123600184,289,9
123619932,121,16
123640736,196,1
123660508,121,1
123680268,4,9
123697940,36,4
123716668,9,4
123734344,64,4
123753060,100,4
123772816,1,0
123790504,49,1
123809216,36,1
123827932,4,16
123846640,4,0
123864348,1,0
123882028,144,4
123901784,36,9
123920500,36,0
123939220,25,1
123957944,9,1
123975620,36,1
123994340,121,16
124015144,100,25
124035940,9,1
124053628,0,0
124071304,9,1
124088984,169,1
124108728,324,0
124128504,256,1
124148268,81,4
124166976,16,0
124185708,4,1
124203380,361,25
124224176,1024,4
124244964,169,0
124264744,81,4
124283464,256,9
124303224,25,25
124322980,169,9
124342732,256,16
124363548,4,1
124381220,256,4
124400976,144,0
124420728,1,4
124438412,1,4
124456108,9,0
124473776,36,0
124492496,0,0
124510176,4,0
124527868,9,0
124545528,25,25
124565308,4,9
124582984,100,1
124602748,49,9
124621464,25,1
124640172,4,0
124657872,0,1
124675544,16,9
124694260,16,1
124712992,1,4
124730660,36,36
124750416,64,4
124769132,196,0
124788904,529,36
124809688,64,36
124829460,1,1
124847136,1,0
124864820,16,0
124883528,225,16
124904340,100,36
124925144,121,0
124944892,289,9
124964660,9,1
124982348,9,9
125000024,9,9
125017708,4,0
125035372,25,0
125054108,49,0
125072828,36,4
125091536,0,1
125109208,36,9
125127944,9,9
125145636,1,1
125163300,4,0
125180980,0,0
125198664,196,0
125218420,324,16
125239208,0,25
125257952,9,4
125275624,49,9
125294348,9,1
125312032,196,0
125331788,169,36
125352580,25,25
125372320,441,0
125392100,484,16
125412904,9,9
125430580,0,0
125448260,169,9
125468016,441,36
125488812,256,9
125508564,121,0
125528344,9,9
125546024,0,0
125563700,64,1
125582428,361,0
125602184,16,1
125620908,25,0
125639616,9,0
125657312,1,1
125674984,1,4
125692660,36,1
125711384,324,49
125732188,144,100
125754016,1,25
125772724,4,4
125790424,0,1
125808108,16,1
125826816,16,4
125845548,196,36
125866344,25,1
125885060,25,9
125903772,100,0
125923544,0,0
125941224,324,0
125960988,81,4
125979708,25,0
125998428,100,4
126018180,289,4
126037940,9,0
126055624,49,25
126075380,0,25
126094104,16,4
126112836,1,9
126130504,100,0
126150252,256,0
126170020,4,1
126187704,144,4
126207452,49,9
126226176,1,0
126243860,1,0
126261548,36,1
126280264,4,4
126297944,36,49
126317708,0,4
126335392,9,0
126353060,144,16
126373844,81,16
126393628,0,1
126411300,9,0
126428984,49,4
126447708,324,0
126467464,49,25
126487212,49,4
126505924,36,4
126524668,25,4
126543384,16,0
126562092,0,1
126579780,0,1
126597464,4,0
126615136,4,0
126632820,1,4
126650504,49,1
126669224,196,1
126688972,225,9
126708740,100,9
126728512,4,1
126746188,16,1
126764900,25,1
126783628,1,16
126802344,36,0
126821056,1,0
126838724,16,4
126857460,36,1
126876188,36,0
126894892,441,9
126914660,100,4
126934424,4,4
126952100,9,1
126969772,16,0
126988500,225,0
127008252,529,16
127029048,144,9
127048828,1,1
127066500,0,1
127084172,4,1
127101860,25,0
127120588,169,1
127140332,25,9
127159052,4,0
127176752,4,1
127194424,169,1
127214168,1225,16
127236012,1369,36
127257860,484,9
127277624,0,1
127295300,4,4
127312980,400,36
127333796,49,64
127353536,36,49
127373284,36,4
127392024,0,0
127409704,25,0
127428412,64,0
127447144,324,1
127466912,169,1
127486660,4,36
127505372,4,16
127524104,9,4
127541792,16,0
127560496,100,0
127580260,64,25
127600020,400,1
127619780,121,16
127640568,9,0
127658260,49,0
127676980,81,1
127695708,9,16
127714428,16,1
127733144,16,4
127751864,64,1
127770572,576,64
127791376,169,169
127813224,196,121
127835044,196,49
127855860,0,1
127873536,49,81
127893300,400,4
127913060,49,49
127932828,225,25
127953612,196,1
127973368,529,81
127994184,400,16
128014980,16,4
128033696,1024,4
128054500,400,25
128075312,25,9
128094016,1369,49
128115856,3969,121
128138736,1936,121
128161608,625,64
128182416,484,64
128203224,9,9
128220892,196,25
128241704,256,9
128261456,9,0
128279136,1936,16
128300972,784,169
128322816,529,25
128343620,784,16
128364408,256,9
128384180,841,1
128403940,25,9
128422664,256,36
128443460,784,4
128463220,1,64
128481932,484,4
128501692,0,16
128520428,324,25
128541228,676,100
128563056,289,4
128582832,196,144
128604648,576,36
128625440,4096,81
128647304,441,121
128669128,2116,9
128689928,4489,81
128711780,121,25
128732580,1849,81
128754416,16,4
128773144,36,64
128792900,225,25
128813692,529,64
128834488,1936,4
128855304,1296,121
128878188,81,16
128897936,361,25
128918736,324,16
128939552,4,9
128957224,484,81
128978028,225,16
128998820,1,49
129017532,0,0
129035208,324,4
129054992,2304,0
129075780,961,121
129097620,25,81
129117384,289,9
129137136,9,49
129155844,1521,121
129178736,1225,729
129201612,196,36
129222408,2401,49
129244264,2304,9
129265052,2809,81
129286884,2116,324
129309776,625,225
129331608,289,100
129353444,16,16
129373220,36,81
129392984,36,144
129413792,1024,36
129435608,1936,36
129457464,576,0
129477216,4,36
129495944,324,4
129515704,144,25
129536492,0,9
129554172,256,16
129574984,0,81
129593696,25,0
129612412,196,25
129633216,100,169
129655064,100,25
129675852,169,64
129696656,1225,4
129717464,256,9
129737212,784,4
129756976,1600,36
129778824,144,9
129798568,841,1
129818336,2500,9
129839144,1156,64
129860988,100,16
129881760,3481,100
129904668,3721,256
129927544,625,16
129948348,1,1
129966012,4,1
129983712,16,9
130002424,121,4
130022172,144,36
130042988,81,1
130061696,676,49
130082488,484,64
130103284,81,0
130122016,81,0
130140732,2601,100
130163612,0,1
130181296,3721,256
130204184,196,121
130226020,2025,64
130247868,1444,16
130269688,196,441
130291532,100,1225
130314424,25,441
130335220,36,64
130354976,1764,0
130375772,3025,49
130397608,2025,225
130420492,576,49
130441308,64,1
130460028,64,9
130478728,121,4
130498488,225,1
130518260,49,49
130538032,25,49
130557772,576,4
130577536,169,4
130597304,0,361
130617048,121,1024
130639932,196,400
130661780,1936,1
130682580,961,16
130703384,324,16
130724172,196,0
130743924,81,484
130764728,4096,529
130787624,676,36
130808424,81,16
130828184,100,25
130848972,484,961
130870820,3844,1444
130894736,729,576
130916588,100,36
130937392,169,25
130958168,2304,225
130981060,2116,225
131003944,64,4
131022660,961,144
131044504,400,0
131064268,36,0
131082988,1,4
131100644,100,16
131121464,0,0
131139148,36,9
131157852,100,4
131177620,144,0
131197380,100,36
131218176,225,36
131238980,100,25
131259788,100,9
131279532,1,16
131298252,225,0
131318024,9,1
131335704,256,16
131356500,144,0
131376260,25,9
131394980,9,16
131413700,9,121
131433448,484,0
131453216,1024,25
131475056,1369,25
131496888,1024,144
131519780,676,121
131541628,9,0
131559292,729,9
131579060,0,9
131596728,361,81
131617540,64,9
131636260,625,9
131656028,1444,144
131678876,4489,64
131700724,4900,121
131723624,9,144
131743380,961,81
131764168,256,81
131784988,25,1
131803692,169,1
131823452,36,0
131842184,841,4
131861944,169,25
131882744,121,1
131902500,729,1
131922264,2116,49
131944096,841,81
131964884,900,0
131984652,1936,36
132006488,49,4
132025216,196,1
132044992,324,1
132064736,441,36
132085532,196,64
132106336,169,9
132126092,676,100
132147944,121,0
132167704,1444,49
132189536,225,36
132210340,484,0
132230088,1296,25
132251948,1764,121
132274828,1024,169
132297680,1936,100
132320576,1936,100
132343456,16,256
132364252,64,64
132384016,256,1
132403772,841,9
132423536,169,64
132444344,441,0
132464092,324,81
132484900,9,1
132502568,324,25
132523380,1089,1
132544172,196,49
132564980,49,100
132585784,25,49
132605532,1296,1
132626320,841,225
132648176,169,121
132670012,81,0
132688740,16,1
132707464,121,0
132727228,0,1
132744896,1369,0
132765688,3249,81
132787540,3136,81
132809380,1936,49
132831212,1681,25
132853064,961,25
132873868,16,4
132892572,64,9
132911296,1,100
132931068,900,1
132950816,100,25
132971624,64,25
132991384,289,16
133012172,1444,1
133032980,1369,100
133055872,4,25
133074576,1225,81
133096412,1444,64
133118268,225,16
133139064,1,36
133157780,9,25
133176496,400,0
133196248,2116,100
133219128,256,144
133240984,81,0
133259712,1156,25
133281536,1156,289
133304428,81,9
133323140,121,36
133343932,0,0
133361612,484,0
133381384,36,36
133401128,2704,64
133422972,1089,100
133445856,1764,4
133466656,5776,144
133489540,1296,144
133512432,121,1
133532192,9,0
133549860,9,1
133567548,0,0
133585212,729,0
133604976,1156,36
133626812,144,36
133647616,729,0
133667384,484,9
133687152,4,1
133704828,16,4
133723552,49,1
133742260,64,1
133760976,676,1
133780744,676,16
133801540,625,4
133821296,400,4
133841068,1,0
133858732,144,25
133879544,9,9
133897204,529,25
133918008,576,0
133937772,961,4
133957528,2809,100
133980412,729,81
134001216,81,0
134019944,289,4
134039704,0,36
134058428,225,25
134079220,625,36
134100024,1681,25
134121864,576,4
134141620,0,1
134159300,49,9
134178020,49,4
134196732,4,0
134214420,25,16
134234184,49,25
134253936,9,0
134271604,576,0
134291368,5776,100
134314260,2304,169
134337132,49,9
134355856,441,1
134375628,484,4
134395380,484,1
134415140,529,0
134434900,256,1
134454664,64,0
134473384,256,0
134493144,64,9
134511860,1089,49
134533684,1600,121
134556572,100,9
134576344,400,16
134597140,36,0
134615856,400,0
134635628,169,16
134656428,81,4
134675136,400,16
134695936,169,9
134715712,9,16
134734412,4,0
134752104,1,9
134769788,121,16
134790576,81,16
134810340,784,16
134831144,81,16
134850900,25,1
134869612,400,1
134889372,529,49
134910184,25,9
134928896,100,4
134948660,144,9
134968420,576,1
134988180,1444,81
135010012,81,36
135029796,225,9
135049540,676,4
135069300,529,4
135089056,676,49
135109868,144,81
135130664,289,9
135150424,25,0
135169152,25,9
135187860,36,1
135206572,289,25
135227376,441,1
135247148,25,0
135265860,36,4
135284572,121,36
135305376,36,0
135324096,676,0
135343860,9,16
135362588,1,4
135380260,169,0
135400020,400,49
135420816,121,25
135441612,289,0
135461372,64,0
135480088,1225,25
135501936,324,25
135522728,900,49
135543524,3364,144
135566424,400,64
135587220,484,4
135606984,400,49
135627788,4,9
135645460,2809,25
135667288,10609,441
135691208,3249,361
135714100,361,25
135734884,25,36
135754652,400,16
135775464,729,0
135795228,36,25
135814976,16,64
135834744,400,36
135855540,225,9
135875288,1444,4
135896096,2601,49
135917940,784,49
135938732,441,4
135958488,1600,64
135980344,64,25
136000096,169,0
136019852,1156,16
136041692,1089,169
136064576,16,49
136084340,9,0
136102028,225,25
136122812,529,9
136142588,841,1
136162340,841,36
136183136,484,64
136203936,1,1
136221612,100,4
136241388,0,0
136259064,9,1
136276736,1,25
136295464,4,1
136313148,100,1
136332900,196,4
136352660,0,9
136370332,961,64
136391120,4096,256
136414008,1369,121
136436896,324,1
136456652,121,1
136476416,484,0
136496184,441,9
136515932,576,9
136535696,2704,64
136557524,961,64
136578340,196,0
136598088,1369,25
136619940,625,25
136640752,225,25
136661540,16,9
136680260,49,4
136698980,1,9
136716672,529,1
136736412,289,64
136757212,36,25
136776984,0,0
136794660,100,0
136814424,16,16
136834180,144,4
136853932,400,9
136873704,196,16
136894508,36,0
136913208,4761,36
136935048,7225,324
136957924,144,169
136979788,196,4
136999544,0,1
137017228,144,1
137036984,289,25
137057780,49,0
137076500,1225,4
137097296,576,100
137119140,100,36
137139940,361,36
137160736,841,144
137182576,1156,81
137204416,49,0
137223140,25,4
137241860,144,1
137261616,25,4
137280332,576,25
137301136,1225,49
137322972,361,36
137343780,100,9
137363540,225,1
137383308,16,0
137402012,100,1
137421768,121,0
137441540,100,0
137461300,121,4
137481056,484,64
137501868,16,36
137521620,0,4
137539296,4,0
137556968,9,1
137574656,529,0
137594416,1849,49
137616248,729,121
137638100,361,4
137657860,169,9
137677608,144,25
137698428,841,9
137718192,324,9
137737936,25,4
137756644,0,1
137774340,0,25
137793072,121,0
137812828,16,4
137831544,49,4
137850260,0,4
137867952,0,0
137885616,25,1
137904344,169,1
137924092,25,9
137942820,324,1
137962592,49,36
137982348,1,1
138000012,81,0
138018736,144,4
138038508,1,4
138056184,0,16
138074904,196,16
138095708,961,9
138115460,1024,64
138137292,256,196
138159148,256,25
138179948,784,25
138200728,169,4
138220496,64,1
138239220,784,4
138258980,225,9
138278728,256,0
138298504,0,9
138316196,784,64
138336976,1156,144
138359868,1369,36
138381704,225,4
138401456,729,16
138422248,2809,196
138445140,1156,196
138468004,961,81
138488808,3249,144
138511704,1764,169
138534576,16,1
138553296,121,4
138573056,144,16
138593856,324,9
138613620,4,1
138631312,1,1
138648988,324,9
138668732,1225,1
138689532,225,16
138710340,144,9
138730096,1225,0
138750892,64,9
138769632,196,1
138789384,25,9
138808108,16,0
138826832,196,9
138846584,324,25
138867392,81,1
138886092,1,9
138903784,49,49
138923544,100,16
138944344,36,1
138963064,100,0
138982812,1024,64
139004656,121,49
139025468,49,0
139044192,0,1
139061860,4,9
139079528,9,16
139098264,49,16
139118020,0,0
139135692,81,0
139154424,729,4
139174192,144,4
139193928,4,0
139211620,64,1
139230344,121,1
139250104,256,49
139270908,576,36
139291704,324,36
139312504,36,25
139332248,25,0
139350972,100,16
139371784,121,9
139391540,49,4
139410268,4,4
139427944,361,25
139448732,1156,121
139471620,225,81
139492432,225,1
139512188,1156,25
139534020,729,36
139554824,169,25
139575624,361,4
139595384,256,9
139615132,49,9
139633864,25,4
139652584,196,0
139672332,576,9
139692096,2025,36
139713928,49,16
139733696,2601,100
139756584,1849,144
139779460,625,25
139800252,196,64
139821064,1,9
139838748,9,36
139857468,4,4
139875140,169,64
139895948,121,25
139916728,576,0
139936508,1369,16
139958356,256,25
139979140,100,9
139998896,0,0
140016580,1,16
140035300,256,0
140055056,81,16
140074804,4,0
140092496,1,0
140110188,1,4
140127860,4,4
140145536,225,16
140166352,625,4
140186104,25,4
140204820,961,9
140224584,400,16
140245376,576,16
140266176,576,49
140286968,324,25
140307780,225,1
140327532,49,9
140346256,0,0
140363928,841,25
140384728,2500,100
140407608,484,49
140428420,25,0
140447140,36,4
140465848,0,25
140484572,0,4
140502276,0,1
140519944,144,9
140539688,289,49
140560500,36,4
140579220,225,0
140598968,625,9
140618732,400,25
140639548,361,25
140660340,81,49
140680096,25,4
140698824,16,0
140717540,1,1
140735220,1,0
140752892,25,0
140771620,100,1
140791368,784,25
140812180,1225,100
140835068,49,81
140854832,100,16
140875628,64,9
140894336,529,16
140915132,144,1
140934900,9,0
140952568,0,4
140970256,81,9
140988976,1,0
141006660,36,1
141025388,4,0
141043072,100,0
141062824,196,1
141082576,25,9
141101312,1,1
141118980,1,0
141136660,1,0
141154348,25,4
141173068,25,16
141192812,64,1
141211544,64,1
141230272,4,1
141247936,1,4
141265616,1,0
141283288,4,0
141300980,9,1
141318664,1,0
141336348,36,0
141355060,25,1
141373784,1,4
141391452,0,4
141409136,0,4
141426820,0,0
141444504,0,4
141462176,4,0
141479856,9,1
141497548,9,4
141515212,9,4
141532896,16,9
141551612,36,0
141570340,121,0
141590104,361,1
141609852,256,9
141629620,576,25
141650408,1444,81
141672252,729,49
141693060,16,4
141711780,1225,49
141733612,2304,64
141755460,1024,64
141777304,0,9
141794992,4,4
141812652,256,4
141832428,16,9
141851136,576,49
141871936,361,64
141892756,49,4
141911464,36,0
141930176,1,0
141947856,225,0
141967628,49,4
141986340,4,0
142004004,729,1
142023772,1089,64
142045608,4,16
142064324,25,16
142084084,9,0
142101792,81,1
142120500,100,16
142141304,169,1
142161060,25,0
142179776,1,0
142197464,256,4
142217208,484,25
142238032,4,9
142255692,16,1
142274424,4,1
142292108,16,4
142310820,0,1
142328492,16,1
142347208,9,1
142364904,16,1
142383624,81,1
142402336,4,4
142420028,1,1
142437704,16,4
142456412,144,25
142477212,225,4
142496988,36,16
142516744,36,4
142535460,121,1
142555220,144,4
142574980,25,4
142593692,0,0
142611364,0,4
142629064,4,4
142646732,1,1
142664408,0,0
142682088,0,1
142699780,0,1
142717452,4,0
142735136,25,0
142753868,64,1
142772580,121,1
142792336,25,1
142811052,1444,25
142832908,900,100
142854744,4,1
142872424,25,1
142891144,4,9
142908824,49,1
142927536,9,1
142945212,9,4
142962900,0,1
142980584,100,9
143000332,256,16
143021148,100,25
143041944,4,0
143059616,4,0
143077288,81,4
143096016,81,0
143114740,16,9
143133452,144,16
143154268,1,9
143171940,25,1
143190664,1,9
143208340,0,0
143226020,1,0
143243688,0,0
143261380,1,0
143279044,16,1
143297780,25,0
143316512,4,1
143334184,1,0
143351868,0,0
143369548,1,0
143387220,0,0
143404892,0,1
143422580,0,4
143440260,0,4
143457940,9,4
143475616,9,1
143493296,4,1
143510972,0,0
143528660,1,1
143546324,1,0
143564016,0,0
143581692,4,0
143599372,4,1
143617056,9,9
143634744,36,1
143653456,16,1
143672180,9,0
143689856,1,0
143707540,0,0
143725224,1,1
143742888,4,0
143760576,0,0
143778248,1,0
143795936,1,0
143813612,1,0
143831300,9,0
143848992,1,1
143866652,0,0
143884344,0,1
143902020,1,0
143919692,4,0
143937376,16,1
143956096,1,0
143973780,0,1
143991460,1,0
144009136,1,0
144026820,0,0
144044488,0,0
144062176,9,1
144079856,9,1
144097544,0,1
144115228,0,0
144132904,1,1
144150584,0,0
144168268,9,0
144185932,4,1
144203624,1,4
144221308,16,0
144240024,9,1
144257692,0,4
144275368,0,1
144293060,4,0
144310740,0,9
144328424,4,4
144346088,0,1
144363784,4,1
144381460,0,0
144399128,9,0
144416820,9,0
144434496,1,0
144452172,4,1
144469852,16,1
144488580,0,1
144506260,9,0
144523936,49,4
144542656,25,1
144561376,0,0
144579048,0,0
144596740,4,1
144614416,9,4
144632100,1,0
144649768,0,0
144667452,4,1
144685140,0,0
144702820,1,0
144720504,1,4
144738168,1,0
144755860,1,0
144773540,9,1
144791220,4,0
144808884,1,0
144826580,0,1
144844264,1,1
144861932,0,1
144879608,0,1
144897304,4,0
144914976,0,0
144932660,1,4
144950340,4,0
144968020,4,0
144985700,16,1
145004412,0,0
145022104,0,1
145039776,0,0
145057464,4,1
145075136,9,4
145092816,4,4
145110500,0,1
145128184,4,1
145145864,9,1
145163540,0,0
145181220,0,1
145198888,0,0
145216584,16,1
145235304,16,9
145254020,0,4
145271692,0,0
145289376,1,0
145307052,9,0
145324732,0,0
145342408,1,0
145360096,0,0
145377780,9,0
145395456,9,0
145413140,0,4
145430824,1,0
145448492,0,1
145466180,1,0
145483868,0,0
145501540,4,0
145519212,9,0
145536892,1,1
145554584,1,0
145572260,9,0
145589932,9,1
145607604,36,0
145626348,1,1
145644012,9,0
145661700,4,1
145679376,1,0
145697056,0,0
145714736,1,0
145732408,4,0
145750100,0,0
145767780,0,1
145785460,0,0
145803140,1,0
145820820,0,0
145838504,0,0
145856180,0,4
145873852,0,0
145891540,9,1
145909212,16,1
145927936,4,4
145945616,1,0
145963304,4,1
145980980,1,0
145998652,4,0
146016340,9,0
146034020,0,0
146051688,0,0
146069380,0,0
146087068,1,1
146104744,0,0
146122412,0,0
146140084,1,0
146157780,0,0
146175452,4,0
146193132,9,0
146210804,1,0
146228496,4,1
146246180,4,1
146263856,0,0
146281540,4,1
146299224,9,4
146316904,1,9
146334580,1,0
146352256,9,0
146369952,0,1
146387620,0,0
146405296,0,0
146422988,0,1
146440664,1,0
146458348,9,9
146476016,1,1
146493704,0,1
146511388,1,1
146529052,1,1
146546736,0,1
146564420,1,0
146582100,4,0
146599780,1,0
146617460,0,1
146635140,0,4
146652812,4,0
146670492,16,0
146689220,1,0
146706884,0,0
146724576,1,1
146742244,0,0
146759952,1,0
146777628,4,1
146795296,1,1
146812984,1,0
146830660,0,0
146848340,1,0
146866016,0,4
146883704,1,1
146901384,0,4
146919060,1,0
146936736,1,1
146954420,1,1
146972092,1,1
146989776,1,1
147007444,0,0
147025140,0,0
147042820,0,0
147060496,0,1
147078184,4,1
147095864,9,1
147113536,9,1
147131208,9,0
147148896,0,0
147166580,1,0
147184252,4,0
147201940,9,1
147219632,0,0
147237300,4,0
147254972,4,0
147272644,4,0
147290340,4,1
147308012,4,0
147325688,0,0
147343372,1,0
147361056,0,4
147378732,0,0
147396420,9,1
147414100,36,0
147432824,36,0
147451540,4,0
147469212,0,0
147486900,0,1
147504576,1,1
147522260,1,1
147539932,4,9
147557620,4,0
147575300,1,0
147592976,1,1
147610660,0,0
147628340,0,0
147646008,0,0
147663704,0,1
147681380,1,0
147699060,9,0
147716740,9,0
147734412,0,0
147752100,0,0
147769788,1,1
147787460,4,0
147805124,4,0
147822824,4,0
147840496,4,1
147858176,4,0
147875860,0,0
147893552,4,0
147911216,16,1
147929928,1,0
147947616,0,0
147965300,0,1
147982972,1,0
148000660,4,4
148018340,0,0
148036012,0,1
148053692,0,0
148071380,0,1
148089056,1,0
148106740,1,1
148124420,0,1
148142100,9,1
148159788,1,1
148177452,0,0
148195132,0,1
148212820,0,1
148230500,0,1
148248176,0,1
148265864,0,0
148283540,0,0
148301224,0,0
148318896,0,0
148336568,0,1
148354264,0,1
148371932,0,0
148389616,0,1
148407288,0,0
148424980,0,1
148442660,0,0
148460340,0,1
148478028,0,0
148495712,1,1
148513380,1,1
148531052,0,0
148548736,4,0
148566416,0,0
148584092,0,0
148601772,0,1
148619460,0,1
148637132,0,0
148654824,0,1
148672496,1,1
148690180,1,0
148707864,0,1
148725544,1,1
148743224,4,1
148760900,0,1
148778576,0,1
148796256,0,0
148813940,0,0
148831624,1,0
148849292,0,0
148866976,0,1
148884660,1,1
148902328,0,0
148920016,0,1
148937692,1,0
148955376,0,0
148973060,0,4
148990740,1,4
149008416,1,0
149026100,0,0
149043772,0,1
149061448,0,0
149079144,0,0
149096824,4,1
149114492,16,0
149133216,4,1
149150908,1,1
149168572,1,0
149186260,1,1
149203928,0,4
149221620,1,16
149240340,0,9
149258020,1,1
149275700,1,1
149293384,0,1
149311048,0,0
149328728,1,0
149346416,0,0
149364104,0,9
149381784,4,4
149399456,0,1
149417144,0,1
149434820,9,0
149452500,1,0
149470176,1,0
149487864,0,0
149505532,4,4
149523212,0,1
149540900,0,0
149558580,0,1
149576252,0,9
149593936,0,1
149611632,0,1
149629308,0,0
149646980,1,0
149664664,1,1
149682340,1,0
149700012,0,1
149717688,0,0
149735364,4,4
149753060,4,9
149770740,1,4
149788408,0,0
149806100,1,0
149823776,0,0
149841460,1,0
149859132,16,1
149877864,4,0
149895540,0,0
149913216,1,0
149930900,4,1
149948588,1,0
149966252,0,0
149983932,0,1
150001608,4,0
150019312,16,4
150038024,4,4
150055700,0,0
150073380,0,0
150091068,1,1
150108732,0,1
150126412,0,1
150144100,0,0
150161780,0,4
150179464,0,1
150197136,0,4
150214820,0,9
150232500,0,1
150250188,0,1
150267860,0,1
150285540,1,1
150303208,0,0
150320892,1,9
150338576,1,64
150357304,0,49
150376016,4,0
150393692,16,25
150413460,49,9
150432172,36,0
150450904,1,16
150469620,0,16
150488348,49,0
150507056,121,9
150526812,100,9
150546588,441,1
150566340,4,0
150584024,1,25
150602728,81,4
150621460,625,16
150642264,64,36
150662020,576,64
150682816,49,81
150702584,16,16
150722344,9,225
150742100,225,1
150761860,289,225
150783704,4,36
150802412,196,9
150822184,196,49
