Timestamp (micros),Sensor1 (mV),Sensor2 (mV)
,,
41281068,16,0
41298740,9,0
41315380,4,1
41332016,36,0
41349700,4,4
41366344,1,0
41382980,4,0
4139951612,9604,10816
53856,2916,9216
56092,1156,441
58268,4,49
60276,1024,484
78360,16,324
94992,1369,1
111640,529,121
130356,36,361
148028,361,49
165712,16,225
183400,361,9
200028,2704,225
219776,12100,1
238504,2916,81
257232,11449,900
278028,29929,49
297788,256,2209
317552,30276,121
338336,9216,900
358108,289,324
376808,7225,16
395524,0,49
411144,0,1681
428816,4624,5329
449620,8464,100
469372,13924,4
488096,9216,2401
508892,6241,484
528676,17161,64
548424,625,36
566096,1600,1
583780,5184,16
602496,19321,36
622260,0,400
638884,27556,1089
660740,12544,1024
682584,8649,2500
703396,576,1600
723160,729,144
741860,16129,1
760568,0,64
776168,1089,2025
796984,3844,1600
817772,20164,256
838560,0,169
855232,11449,5929
877076,49,900
894740,6084,169
914496,3844,64
933232,1024,400
952952,14884,1024
974816,27889,676
995624,225,1369
1015372,15625,9
1035132,6400,484
1055932,64,169
1074664,1764,16
1094436,5625,25
1114192,3481,16
1133948,0,9
1149532,26896,1296
1172428,625,2809
1193248,324,529
1212992,1444,1
1231716,441,100
1251484,36,4
1268104,2704,361
1288896,3969,225
1309692,9604,196
1330516,7396,484
1351296,21904,625
1373124,21904,16
1393952,17424,1936
1416824,21489,1
1436580,18564,3025
1459480,8836,2401
1481284,29241,2401
1504188,23865,36
1524984,13988,5041
1547852,4225,6084
1569684,5329,1225
1591556,256,0
1609236,36,4
1625860,1369,0
1644580,9801,484
1665404,12100,144
1687228,8281,1444
1709056,49,169
1727784,361,144
1747540,49,169
1766272,1936,16
1786028,7225,0
1804744,784,484
1824496,32041,256
1846344,6561,1369
1868188,2916,1089
1890028,1681,225
1910812,8464,144
1931624,13456,25
1952424,2025,1936
1974268,169,1089
1995088,16,36
2012736,1521,100
2033544,2401,49
2053308,1849,676
2074112,400,169
2093868,1681,36
2113628,6724,529
2134428,3136,1296
2156264,2401,16
2176024,7744,1
2194740,29241,324
2216588,14400,289
2238404,1024,484
2259212,4900,121
2280016,21025,361
2301852,14161,676
2323720,49,841
2342432,81,256
2361164,9216,1
2379864,0,121
2397552,16384,1024
2420428,5041,1156
2442292,49,121
2460988,17956,36
2481788,1936,289
2502576,324,1089
2523376,6400,16
2543140,2809,196
2563952,121,1521
2584744,1296,25
2604496,6561,256
2625304,1089,0
2644040,1936,121
2664844,22801,4
2684580,23104,1296
2707448,961,2500
2728260,576,169
2748024,3136,100
2768808,1024,529
2789632,21904,4
2809372,15376,2401
2832256,1369,900
2853068,3136,0
2871768,12996,9
2891544,21609,81
2912352,64,784
2931072,400,225
2950836,1089,25
2970576,2601,0
2989320,81,64
3006984,10404,16
3027784,3364,49
3047560,324,225
3067308,196,4
3084980,2304,0
3103708,625,324
3123488,25,144
3142196,64,4
3158820,100,121
3178592,36,16
3196268,2916,225
3217056,7744,1
3235772,7744,784
3256584,6241,169
3277380,3969,100
3298180,1849,576
3319004,100,169
3338744,225,0
3356432,196,144
3376184,5329,196
3397016,400,81
3415712,196,100
3435456,2304,36
3455228,3969,144
3476036,225,400
3495792,4900,16
3515560,21609,4
3535316,2116,1600
3557136,625,484
3576904,2601,361
3597696,8281,36
3617464,169,784
3637216,3136,49
3656988,81,144
3675704,1444,225
3696512,6084,9
3715244,2304,49
3734988,5929,289
3755792,15876,100
3777628,49,100
3796352,3844,729
3817136,400,0
3834816,1225,144
3855624,400,36
3874336,5041,16
3894116,25921,225
3915936,0,676
3933612,5476,2500
3955468,12100,1521
3978340,1089,100
3999136,6400,484
4019944,9604,324
4040768,289,784
4060520,15876,144
4082344,25,100
4101072,2304,196
4121880,0,256
4139564,25,64
4157212,1444,16
4176980,12769,0
4196760,20736,625
4218592,1936,1369
4240428,1,361
4258120,1,25
4274752,2500,36
4294508,2809,81
4314292,1764,676
4335076,961,36
4353796,400,144
4373556,289,676
4393316,64,100
4412036,289,0
4429728,25,4
4446360,729,25
4465076,841,64
4483788,400,36
4502504,625,100
4522268,5776,9
4540984,3025,196
4561796,289,144
4581560,16,25
4599244,289,81
4617944,2304,1
4636656,3136,144
4657468,3600,81
4677224,256,121
4696980,5776,0
4715712,9216,64
4735476,4624,625
4756272,961,324
4776040,36,144
4794752,576,121
4814508,361,16
4833220,1,25
4849880,1,1
4865476,4,0
4881076,576,9
4898732,6084,36
4918508,7225,289
4939292,225,529
4959064,3136,121
4979888,676,81
4998588,25,64
5016276,576,9
5033944,289,4
5051632,441,81
5070360,1764,16
5090104,841,81
5108840,529,36
5127556,289,121
5147296,361,169
5167056,4,36
5183700,1156,9
5202420,15376,4
5222188,0,64
5238828,21609,1936
5261708,10816,2116
5284584,225,324
5304344,121,196
5324112,1089,36
5343860,100,144
5363620,0,16
5380252,6825,1681
5402092,17161,5776
5424984,49,1764
5444728,5625,16
5464508,9216,0
5483220,81,441
5501924,1225,576
5522748,13689,64
5543536,0,196
5561216,9604,841
5582020,11025,1681
5604908,0,289
5622568,0,1936
5641300,11449,5041
5664176,2601,1089
5686020,21025,16
5706832,11025,9
5726584,8464,576
5747380,29929,676
5769212,0,729
5786912,30976,1024
5809772,23104,784
5831600,1444,1156
5853468,12544,441
5875300,1521,576
5896096,1764,121
5916912,25,484
5935632,2809,9
5954348,9,9
5969948,169,841
5989708,13225,16
6010496,16900,81
6031284,3969,2809
6053156,289,484
6072908,4761,225
6093704,6400,16
6113468,2500,144
6134260,81,841
6152988,12544,9
6172756,3969,900
6193540,10609,169
6215380,11664,169
6237248,1764,676
6258040,729,100
6277792,729,9
6295472,529,4
6313164,169,36
6331884,1,1
6347464,1521,4
6366180,4356,169
6386992,169,225
6406740,13924,49
6427532,0,121
6445224,13225,1089
6468108,10201,1225
6490984,0,64
6507620,22500,3249
6530500,1024,2500
6552352,676,169
6572096,32761,25
6592904,20164,1024
6615772,24964,1089
6638648,7744,484
6659460,8836,1936
6681300,25,4
6697932,9409,1296
6719776,12100,784
6741620,3969,1024
6763456,14161,49
6784272,23104,1
6804040,1089,729
6824824,100,1369
6845628,2704,0
6864348,3249,49
6884096,3481,529
6904916,11881,49
6925712,4900,961
6946504,784,225
6966260,100,0
6983964,2916,121
7004740,5625,16
7024504,64,36
7042164,21025,225
7064024,11236,289
7085860,0,2116
7104584,0,196
7122260,169,4624
7143064,10609,25
7163860,4225,961
7184672,64,16
7202348,4,144
7220012,3721,361
7240828,1,64
7257472,16129,36
7278260,15876,256
7300104,25,2025
7319840,13924,576
7341716,23268,529
7363540,31329,1849
7386428,7921,2025
7408256,5625,324
7429052,529,289
7448828,7921,4
7467548,1156,100
7488340,2916,64
7508092,4225,81
7527872,10404,289
7549712,5476,441
7570500,3721,16
7590268,196,2304
7611048,29241,64
7631840,400,9
7649532,2916,1936
7671384,0,441
7689052,15120,16
7709856,13689,9025
7732732,3721,1296
7754576,20164,529
7776424,2304,25
7796184,3481,400
7816980,5184,441
7837788,2809,676
7858600,25,576
7877300,2025,169
7898092,4096,4
7916828,1225,225
7937640,1,64
7954280,25,100
7973000,196,289
7992748,324,81
8011456,324,49
8030164,10000,1
8049932,0,324
8067620,19044,1444
8090492,1225,1849
8112344,6400,441
8133148,2809,121
8153944,2704,484
8174756,1089,16
8194512,441,225
8214264,3844,49
8234024,7569,16
8253780,3249,729
8274584,361,49
8293300,25,9
8309944,8100,16
8329700,19321,225
8351540,324,576
8371308,10816,441
8393144,784,121
8412908,4624,729
8433708,10000,4
8453468,27889,81
8474256,28900,400
8496092,81,3721
8515860,4096,1156
8537708,4,324
8555388,25,64
8573072,7921,961
8593864,29584,9
8613628,9025,1156
8635468,6084,3364
8657304,14161,196
8679144,8281,841
8699952,9604,2809
8721788,7396,289
8742572,9216,144
8763372,10000,289
8785224,625,900
8804964,6561,625
8825772,11449,0
8845544,441,2500
8866344,2401,1024
8888192,289,900
8907948,961,64
8926660,225,121
8946424,11881,144
8968268,9,324
8985952,22201,1
9005704,15625,289
9027540,3249,484
9048360,9,289
9066020,361,324
9085764,8100,36
9105548,0,81
9122192,8281,784
9142976,9,1521
9161700,11236,9
9181468,0,729
9199144,484,1444
9219948,144,1089
9240752,12996,64
9261548,4761,900
9282344,2916,961
9303148,5776,9
9321872,22500,289
9343696,0,1521
9362424,15876,961
9384280,4,2209
9402984,400,729
9422740,1024,196
9443544,2209,0
9462272,3025,0
9480988,400,484
9500732,12996,36
9521552,14884,64
9542360,1,729
9560012,15876,400
9581856,0,121
9599540,12769,2209
9622412,676,729
9642192,3969,4
9660896,22201,1
9680668,14641,256
9702504,7921,1444
9724328,24025,25
9745132,5184,1296
9766992,10201,225
9788828,0,0
9804420,29241,676
9826244,24649,2209
9849156,14641,1296
9872008,6241,676
9892820,27889,361
9914660,28224,289
9936496,18769,1369
9959364,24964,1089
9982276,8649,784
10003064,6084,1521
10025952,6724,324
10047804,361,361
10068580,0,900
10087316,49,144
10107080,1,49
10124760,36,100
10144520,4,36
10162204,49,100
10181964,25,4
10199640,4,4
10216272,121,4
10235004,841,121
10255788,529,81
10275556,4,9
10292188,169,9
10310912,676,1
10329644,441,0
10348356,9,4
10365004,16,100
10384764,36,100
10404512,100,4
10423236,16,4
10440916,49,64
10459640,25,121
10479380,900,256
10500208,1444,25
10520988,1681,121
10542832,2601,36
10563632,2704,36
10584448,676,169
10605232,64,0
10622896,25,100
10642680,25,0
10660356,121,4
10679072,64,4
10696756,4,1
10713400,16,169
10733156,49,4
10750832,64,289
10770592,169,49
10790360,400,16
10810104,784,1156
10831956,1,2500
10851724,64,1
10869396,81,1156
10890188,4,324
10908924,9,169
10927644,25,16
10946348,196,324
10967152,100,16
10986908,0,1024
11006672,4,484
11025388,4,361
11044124,0,324
11062840,16,9
11080516,81,121
11100280,81,100
11120036,1,25
11137716,0,100
11156428,9,400
11175168,16,81
11193888,4,0
11210516,64,4
11228196,16,1
11245884,4,16
11263556,9,16
11281232,9,400
11299956,0,169
11318684,121,9
11337392,289,0
11356100,121,64
11375880,1,64
11393560,9,1
11410196,25,64
11428928,1,16
11446604,16,9
11464268,16,49
11483000,1,0
11499636,4,16
11517324,4,1
11533952,25,4
11551636,49,9
11569324,9,4
11585960,0,0
11602596,1,4
11619228,9,4
11635872,16,676
11655628,324,2500
11677464,256,289
11698284,1,9
11714912,25,16
11733628,64,81
11752344,49,25
11771076,36,9
11788760,1,4
11805404,9,1
11822028,4,16
11839724,16,1
11857380,0,16
11875076,25,9
11892760,16,4
11910436,9,25
11928116,0,1
11944760,16,256
11964524,9,64
11982196,144,9
12000904,49,49
12019620,4,196
12038360,0,169
12057064,36,81
12075792,49,1
12093476,4,9
12110120,4,64
12127800,1,81
12145468,25,9
12163164,9,1
12179804,1,0
12196440,9,81
12214108,9,81
12231804,1,0
12248440,64,81
12267148,144,324
12287948,1,121
12306676,1,81
12324348,0,81
12342036,144,4
12360760,196,1
12379484,196,0
12398188,324,64
12417944,64,81
12436688,9,1
12453324,81,361
12473072,100,484
12493876,4,16
12511560,0,9
12528200,9,16
12545872,64,64
12564600,81,4
12582288,49,49
12600996,16,100
12620740,25,361
12640516,49,2500
12661308,100,900
12682116,9,0
12698764,49,49
12717484,81,169
12737232,49,25
12755936,4,0
12772604,0,16
12790272,0,16
12807948,1,400
12826676,4,196
12845396,100,1
12864120,196,64
12883860,81,81
12902592,4,4
12919232,49,1
12936912,144,25
12956664,49,16
12975396,4,16
12993064,0,121
13011796,36,16
13030512,121,25
13050268,144,36
13070036,121,36
13089784,1,144
13108528,25,16
13127240,25,64
13145956,36,4
13163644,16,1
13181324,9,0
13197968,1,9
13214600,9,4
13231236,25,1225
13252024,121,6724
13273864,100,2601
13295716,25,100
13315476,16,25
13334196,9,64
13351872,1,9
13368516,36,1
13386192,36,25
13404908,25,169
13424672,49,441
13444444,1,169
13463156,25,36
13481868,81,100
13501632,36,25
13520356,1,0
13536984,16,961
13556744,36,1024
13577556,0,9
13594192,9,4
13610836,0,9
13627488,0,36
13645168,0,1
13661792,4,81
13679468,0,16
13697160,4,9
13713800,16,36
13732520,49,4
13750192,25,1
13767876,25,0
13785552,36,1
13803236,1,0
13819864,49,25
13838600,169,49
13858356,49,625
13878112,1,256
13896844,4,0
13913476,4,0
13930112,16,9
13947788,25,0
13965476,0,9
13982120,4,16
13999800,1,9
14016424,1,0
14033080,16,9
14050756,9,49
14068436,1,16
14086116,0,1
14102760,4,4
14119384,0,16
14137072,0,9
14153708,16,9
14171400,36,100
14191160,4,81
14208832,36,0
14226512,25,1
14244196,4,25
14261864,16,16
14280608,4,1
14297244,0,0
14313884,16,1
14331552,25,100
14351308,36,225
14371084,9,49
14388772,25,25
14407468,36,256
14427240,1,169
14445956,4,16
14463636,9,1
14480272,81,4
14497972,64,1
14515636,4,4
14532280,1,4
14548908,16,1
14566600,36,1
14584272,0,0
14600920,16,9
14618592,0,81
14636276,9,100
14655000,36,169
14674756,4,256
14693480,121,1
14712204,4,484
14730912,64,1156
14751696,64,784
14771476,49,36
14790208,4,4
14806836,4,324
14825564,0,324
14844272,100,0
14862992,16,4
14880668,49,225
14900440,4,16
14918120,4,121
14936828,9,169
14955540,0,729
14974272,100,784
14995072,121,0
15013788,0,49
15031472,36,0
15049156,4,100
15067864,16,361
15087632,81,2304
15108436,0,256
15127148,64,49
15145884,4,49
15163556,1,361
15182260,16,1849
15203068,25,784
15222828,25,361
15242608,169,576
15263392,64,64
15282104,1,169
15300836,36,0
15318516,100,16
15338268,16,961
15358036,16,2704
15378832,144,1369
15400672,81,225
15420444,4,9
15437072,9,0
15453728,25,16
15472436,49,1
15490116,0,100
15508836,0,121
15527548,49,36
15546264,25,0
15563952,25,25
15582676,9,81
15600364,16,25
15619064,25,49
15637804,16,4
15655476,0,1
15672112,1,4
15688756,1,36
15706436,36,9
15724116,36,25
15742824,9,9
15759480,16,169
15779244,4,81
15796908,1,49
15814588,25,16
15833324,9,0
15849952,16,4
15867632,0,1
15884268,16,1
15901952,16,0
15919644,25,25
15938352,1,49
15956036,1,169
15974752,4,9
15991392,16,100
16011152,64,256
16030916,0,100
16049632,49,9
16067316,9,9
16083948,0,16
16101640,0,4
16118272,0,16
16135952,36,169
16155716,100,484
16176524,81,225
16196276,144,9
16214996,81,225
16234756,0,196
16253476,4,1
16270112,9,81
16287800,0,4
16304444,9,9
16321072,49,16
16339796,16,9
16357476,4,36
16375164,25,4
16392840,49,81
16411548,49,144
16431316,25,49
16450036,0,25
16467716,0,441
16486448,16,729
16506196,25,25
16524924,16,9
16542604,64,100
16562352,100,289
16583156,16,36
16601880,64,64
16620592,196,100
16641404,49,9
16659084,0,4
16675716,4,36
16693412,0,16
16711084,64,25
16729796,64,16
16748504,25,64
16767236,36,289
16786992,1,289
16805724,4,49
16823404,4,121
16842124,4,16
16859784,9,64
16877468,1,49
16895152,16,36
16913876,0,0
16930516,9,4
16947144,25,9
16964836,25,64
16983544,4,49
17001236,1,25
17018936,4,1
17035560,0,16
17053232,25,0
17070916,81,4
17088608,25,49
17107320,16,81
17126040,36,1
17143708,1,100
17162432,36,16
17181156,16,1
17198832,0,9
17215472,0,1
17232120,4,25
17249792,4,64
17267480,1,196
17286196,0,100
17304924,1,25
17322588,4,324
17341308,100,900
17362112,169,324
17382916,49,1
17400596,0,16
17418280,36,9
17435960,36,36
17454680,1,81
17472352,36,0
17490036,0,49
17507720,4,81
17525388,64,49
17544112,4,16
17561804,1,1
17578436,16,0
17596120,9,1
17612740,0,9
17629400,25,1
17647076,4,0
17663704,0,64
17681396,1,196
17700116,4,36
17717804,64,9
17735472,64,1
17753160,4,100
17771872,9,256
17790596,9,9
17807236,1,16
17824924,0,1
17841564,0,9
17858192,0,25
17875864,4,64
17893564,121,196
17914348,100,64
17934116,0,4
17950760,4,4
17967392,49,4
17985072,169,9
18003784,49,25
18022516,1,196
18041244,1,1
18057876,4,81
18075552,0,25
18093240,64,400
18112992,100,49
18132752,4,25
18150444,0,4
18167088,144,9
18185796,441,49
18205556,4,49
18223244,64,36
18241960,36,9
18259648,4,1
18276268,1,25
18293968,16,49
18312664,4,121
18331384,4,49
18349084,1,25
18366764,16,64
18385476,4,0
18402108,36,16
18420840,36,36
18439556,9,441
18458276,9,144
18476992,1,0
18493644,1,36
18511308,0,49
18528988,0,1
18545628,16,1
18563316,81,100
18583084,144,169
18603876,64,25
18622608,1,16
18640276,81,36
18658992,49,0
18676676,0,4
18693324,0,1
18709960,0,25
18727640,4,169
18746352,16,289
18766120,16,64
18784836,0,1
18801476,4,9
18818112,0,9
18834756,4,121
18853476,36,121
18873236,25,16
18891960,9,25
18909628,16,16
18928356,0,9
18944988,25,4
18962684,25,4
18980356,4,9
18996992,0,1
19013632,0,49
19031316,9,36
19049004,49,4
19066672,81,25
19085404,9,1
19102028,25,0
19119716,121,9
19138436,81,1
19156124,0,9
19172764,16,36
19191472,1,49
19209152,49,9
19226848,4,16
19244528,4,1
19261152,0,25
19278828,0,4
19295476,64,49
19314208,16,16
19332912,4,49
19350608,1,0
19367240,64,0
19384916,121,4
19403632,1,36
19421328,9,4
19437964,36,25
19456672,81,100
19476416,100,25
19496208,25,1
19513884,1,9
19530516,4,1
19547164,9,1
19563796,9,0
19580444,1,9
19597072,9,169
19615796,4,225
19634524,25,0
19652192,36,49
19670912,64,16
19689640,81,9
19707316,4,4
19723956,1,1
19740592,36,1
19758276,49,0
19775952,0,36
19793636,1,1
19810272,4,9
19826920,4,9
19843560,9,25
19861228,25,169
19881000,9,1
19897640,0,1
19914276,1,0
19930908,0,0
19947556,0,16
19965236,4,4
19981872,1,0
19998516,81,9
20016192,36,16
20034916,0,25
20052596,4,25
20070280,1,1
20086912,1,1
20103564,1,9
20120196,4,25
20137872,9,0
20154516,49,36
20173232,25,49
20191952,9,49
20209628,36,0
20227320,0,1
20243964,100,16
20263716,144,9
20282436,64,9
20300116,4,49
20317796,1,0
20334424,4,81
20352124,36,361
20371884,0,625
20390584,49,121
20410344,16,64
20429076,16,121
20448832,49,49
20467564,16,36
20486272,169,1
20505000,100,9
20523716,16,25
20542428,0,16
20560116,16,0
20577800,36,64
20596508,0,256
20615232,16,81
20633956,16,1
20651636,16,25
20670356,1,9
20687000,1,9
20703640,16,144
20723392,16,64
20742108,9,36
20759804,1,169
20778512,64,121
20798268,121,4
20816996,4,144
20835724,16,64
20854424,25,0
20872108,9,0
20888760,0,49
20906432,1,25
20924108,16,81
20942828,49,289
20962604,49,36
20981312,9,1
20997952,0,9
21014600,1,100
21033316,1,25
21050996,4,1
21067632,9,9
21084272,25,1
21101964,1,1
21118588,1,9
21135244,4,1
21151880,9,4
21168516,4,49
21186196,0,64
21203868,1,36
21221552,0,9
21238196,4,64
21255864,36,100
21275624,25,16
21294360,1,0
21310996,1,0
21327624,0,4
21344284,1,1
21360924,4,1
21377560,36,16
21396276,49,9
21413956,36,49
21432676,16,144
21452432,0,1
21469076,4,16
21486764,36,1
21504436,225,9
21523156,64,1
21540824,1,0
21557472,0,9
21574116,4,16
21591800,1,1
21608432,1,0
21625076,1,9
21641716,0,25
21659396,0,0
21676028,0,16
21693712,0,49
21711400,0,16
21729080,1,25
21746768,4,256
21765484,9,196
21784188,4,0
21800828,0,81
21818520,36,36
21837236,100,0
21855964,16,9
21873628,0,225
21892356,0,324
21911088,9,169
21929800,49,49
21948512,9,49
21966204,0,9
21982840,0,1
21999476,0,4
22016108,0,9
22032748,0,0
22049380,0,0
22066036,0,1
22082676,0,0
22099316,0,9
22115948,0,64
22133632,1,81
22151328,16,81
22170036,49,16
22188748,36,36
22207468,25,121
22227248,1,16
22244928,1,4
22261564,9,4
22278204,1,64
22295884,36,9
22313556,16,9
22331236,1,0
22347876,49,16
22366596,25,4
22384272,16,1
22401952,25,0
22419652,1,196
22438352,25,576
22458108,4,225
22476848,64,0
22494528,4,36
22512200,0,4
22528832,9,16
22546512,1,0
22563156,1,0
22579792,1,121
22598508,16,289
22618280,1,25
22635956,9,0
22652604,4,4
22669240,4,9
22685888,1,4
22702512,1,4
22719160,1,0
22735788,36,1
22753484,4,4
22770116,0,4
22786756,1,16
22804432,1,25
22822112,25,25
22840832,1,1
22857472,4,64
22875160,4,100
22893876,0,169
22912600,49,64
22931308,144,0
22950036,49,4
22967724,1,1
22984356,1,4
23000992,0,4
23017640,0,1
23034272,0,4
23050908,9,4
23067552,16,100
23087312,1,196
23106044,1,4
23122664,25,121
23142444,25,1
23160128,1,81
23177792,0,49
23195468,1,4
23212120,9,25
23229804,64,25
23248520,121,9
23267232,16,144
23286996,25,64
23305704,0,4
23322348,4,1
23338980,0,0
23355640,49,1
23373316,49,9
23391004,16,36
23409724,0,25
23427400,0,25
23445080,1,9
23461716,9,1
23478364,1,9
23495004,9,0
23511632,4,25
23529316,4,25
23546996,9,0
23563636,49,9
23581308,121,4
23600028,4,4
23616676,0,16
23634344,0,25
23652024,0,16
23669712,9,9
23686364,49,64
23705072,25,81
23723796,4,25
23741492,4,4
23758132,1,9
23774760,0,9
23791392,49,1
23809076,49,4
23826756,0,0
23843392,0,25
23861076,1,81
23878756,25,625
23898516,121,1024
23920360,4,81
23938028,49,0
23955724,0,4
23972352,36,1
23990036,4,100
24008768,4,324
24027488,25,169
24047236,49,25
24065948,25,16
24084676,36,16
24103396,64,1
24121068,4,0
24137700,0,0
24154356,0,0
24170996,0,49
24188676,1,196
24207396,16,100
24227164,9,9
24243792,0,0
24260444,1,9
24277084,9,0
24293716,9,1
24310356,0,9
24327004,0,4
24343648,49,0
24361320,36,1
24378996,9,16
24396676,25,16
24415404,1,64
24433080,25,169
24452836,25,25
24471540,64,0
24489232,49,0
24506920,1,0
24523556,16,1
24541236,36,0
24558924,0,0
24575556,16,1
24593232,4,4
24609888,25,9
24627556,0,0
24644200,4,4
24660832,0,9
24677476,1,9
24694112,1,0
24710744,0,0
24727392,9,4
24744032,4,0
24760676,25,4
24778356,1,16
24796044,9,16
24813720,9,16
24831392,9,16
24849076,0,9
24865708,0,9
24882364,0,1
24898996,1,4
24915636,4,16
24933308,4,1
24949956,16,1
24967636,36,16
24986352,36,25
25005072,16,16
25023804,4,1
25040428,16,9
25058120,1,9
25074764,4,1
25091404,25,4
25109076,1,100
25127796,49,196
25147556,49,100
25167316,25,16
25186032,16,9
25203708,4,4
25220348,0,16
25238040,25,25
25256744,36,16
25275476,1,4
25292120,1,1
25308752,4,196
25327468,4,441
25346192,16,64
25364916,1,0
25381556,1,0
25398188,1,4
25414836,0,9
25431476,4,1
25448116,1,0
25464740,0,16
25482452,1,9
25499076,49,4
25516748,36,0
25534420,1,4
25551076,16,1
25568756,0,16
25586432,0,1
25603072,0,9
25619716,4,0
25636348,0,0
25652996,25,0
25670680,1,49
25688360,1,121
25707068,9,36
25724748,0,36
25742432,9,9
25759076,4,16
25776752,0,64
25794436,0,49
25812124,4,0
25828760,81,36
25847476,49,25
25866188,0,0
25882844,0,1
25899480,1,1
25916116,1,1
25932744,1,0
25949404,25,9
25967068,9,49
25984756,9,36
26002440,16,16
26021152,16,4
26038828,4,81
26056512,0,9
26073164,0,16
26090844,49,9
26108516,169,16
26128272,64,16
26147004,1,0
26163636,9,1
26180280,1,4
26196908,25,9
26214600,25,16
26233312,4,9
26249960,4,16
26267624,49,225
26287396,9,49
26305072,9,1
26321712,0,9
26338360,1,1
26355000,16,81
26373708,0,64
26391388,9,49
26409072,4,25
26426752,0,0
26443392,4,1
26460032,4,0
26476684,1,16
26494356,0,100
26513076,0,81
26530752,4,49
26548448,4,9
26565080,1,0
26581716,1,0
26598352,16,1
26616044,64,25
26634752,49,81
26653468,25,36
26672200,9,1
26688840,4,0
26705468,0,0
26722112,0,1
26738752,0,0
26755404,0,0
26772032,0,16
26789704,25,0
26807392,36,0
26825084,4,25
26842756,0,36
26860432,0,16
26878124,4,16
26895792,4,1
26912440,1,36
26930108,4,64
26947792,0,0
26964428,9,81
26982116,1,9
26998748,0,9
27015404,4,0
27032028,1,49
27049720,16,4
27067400,9,9
27084044,9,25
27101728,4,1
27118352,4,0
27135000,0,1
27151640,0,9
27168272,16,9
27185948,36,0
27203632,9,4
27220276,1,25
27237944,1,9
27254600,49,1
27272280,36,4
27289956,1,1
27306592,16,9
27324280,4,16
27341968,4,1
27358604,9,9
27375232,1,0
27391876,4,4
27408520,1,36
27426192,4,4
27442832,25,4
27460508,4,1
27477152,49,9
27494840,9,9
27511476,0,9
27528116,25,16
27546840,25,36
27565556,9,1
27582204,9,100
27600924,16,361
27620676,0,64
27638356,49,9
27656036,9,9
27672680,0,4
27689320,0,1
27705956,0,4
27722596,0,4
27739244,16,4
27756912,16,0
27774592,4,1
27791224,0,4
27807876,1,36
27825548,0,16
27843236,25,1
27860904,36,0
27878592,0,4
27895224,36,4
27912920,100,16
27932668,16,81
27951392,9,9
27968040,16,4
27985704,9,9
28002352,4,16
28020040,0,4
28036676,1,1
28053312,4,4
28069964,0,16
28087644,25,36
28106364,4,4
28122996,0,4
28139644,1,16
28157324,64,1
28174996,81,0
28192672,1,1
28209316,0,16
28226988,4,9
28243632,16,64
28262348,4,361
28281088,4,121
28299804,0,0
28316428,9,81
28334120,16,36
28352848,49,4
28370512,4,25
28388192,0,36
28405880,0,49
28423560,0,64
28441228,0,36
28458908,16,1
28476592,25,1
28494276,4,1
28510916,0,16
28528588,0,1
28545236,0,1
28561868,4,16
28579556,4,49
28597216,0,64
28614920,1,9
28631548,16,16
28650264,36,36
28668992,0,25
28686676,25,4
28704360,16,9
28722040,0,49
28739716,1,9
28756360,16,1
28774036,36,1
28791708,1,81
28809396,4,64
28827076,4,16
28844756,4,4
28861388,0,0
28878040,36,9
28895716,100,25
28915476,36,4
28933152,0,81
28950836,1,25
28968524,16,4
28986196,4,4
29002836,4,9
29019488,1,9
29036112,0,0
29052752,0,4
29069392,9,0
29086040,25,4
29103716,25,49
29122436,49,49
29141164,16,0
29158840,4,25
29176512,0,4
29193148,0,1
29209796,1,4
29226436,0,9
29243076,1,36
29260752,9,25
29278448,16,9
29296112,1,4
29312748,0,49
29330428,1,36
29348116,4,81
29365808,4,169
29384516,9,49
29402196,4,9
29418844,1,36
29436512,16,49
29455232,1,4
29471884,36,4
29489556,1,0
29506200,1,0
29522840,1,0
29539484,0,1
29556124,1,4
29572760,16,4
29590432,1,64
29608124,25,36
29626836,64,0
29644512,100,0
29663228,4,36
29680916,9,100
29699636,1,9
29716276,4,4
29732920,4,1
29749552,0,0
29766192,0,1
29782836,0,1
29799476,0,4
29816116,0,4
29832752,0,0
29849396,1,4
29866036,9,9
29882680,0,4
29899312,16,1
29916996,81,4
29934676,9,25
29952352,9,9
29969000,49,9
29986680,16,49
30005404,1,25
30023076,1,0
30039708,9,0
30056348,4,0
30072996,0,1
30089644,1,0
30106276,0,4
30122908,4,0
30139568,4,9
30156200,4,36
30173868,1,16
30191548,4,4
30208204,16,1
30225876,4,1
30242516,81,9
30260192,25,9
30277876,9,16
30295556,1,64
30313224,0,49
30330928,4,1
30347560,16,9
30365236,16,1
30382912,16,36
30401640,1,1
30418276,4,0
30434908,16,25
30453628,4,16
30471312,16,1
30489004,16,9
30506672,0,64
30524348,0,1
30541000,1,9
30557636,4,9
30574280,1,25
30591960,1,0
30608592,9,0
30625240,9,4
30641876,9,4
30658512,16,0
30676204,1,1
30692828,0,0
30709468,1,0
30726108,9,0
30742756,0,1
30759392,0,1
30776032,0,4
30792668,0,1
30809324,1,16
30826984,4,9
30843628,1,9
30860272,16,1
30877964,0,1
30894596,36,1
30912276,1,1
30928920,36,0
30946604,25,1
30964268,1,9
30980912,0,16
30998596,9,16
31016296,36,4
31033968,1,1
31050588,1,0
31067236,1,1
31083876,1,9
31100512,4,0
31117156,25,1
31134832,25,4
31152516,1,1
31169152,16,0
31186824,16,0
31204520,0,1
31221152,0,0
31237784,1,0
31254420,0,0
31271072,1,0
31287708,0,0
31304344,0,0
31320992,0,0
31337632,0,0
31354272,0,0
31370904,0,0
31387544,0,0
31404192,0,0
31420832,0,1
31437472,0,1
31454108,1,1
31470756,1,0
31487392,0,0
31504024,0,0
31520668,1,0
31537316,4,0
31553956,1,0
31570592,0,0
31587224,1,0
31603876,1,0
31620524,0,1
31637152,1,1
31653792,0,0
31670444,0,1
31687076,0,0
31703720,1,1
31720348,0,1
31736988,0,0
31753640,0,1
31770264,0,0
31786904,0,0
31803548,0,0
31820192,0,0
31836832,0,0
31853468,0,1
31870112,0,0
31886752,0,0
31903380,0,0
31920024,0,0
31936676,0,0
31953312,0,0
31969944,0,0
31986588,0,0
32003232,0,0
32019872,0,0
32036504,0,0
32053144,0,0
32069792,0,0
32086432,0,0
32103064,0,0
32119704,0,0
32136352,0,0
32152992,0,0
32169624,0,0
32186264,0,0
32202912,0,0
32219552,0,0
32236180,0,0
32252828,0,0
32269476,1,0
32286112,0,0
32302744,0,0
32319388,0,0
32336032,0,0
32352672,0,0
32369312,0,0
32385948,0,0
32402592,0,0
32419232,0,0
32435860,0,0
32452500,0,1
32469152,0,0
32485792,0,0
32502432,0,0
32519068,0,0
32535712,0,0
32552352,1,0
32568984,0,0
32585624,0,0
32602272,0,0
32618916,0,0
32635556,0,0
32652188,0,0
32668828,0,0
32685472,0,0
32702100,0,0
32718744,0,0
32735392,0,1
32752032,0,0
32768664,0,0
32785304,0,1
32801952,0,0
32818592,0,0
32835224,0,0
32851864,0,0
32868512,0,0
32885152,0,0
32901784,0,0
32918424,0,0
32935068,0,0
32951712,0,0
32968344,0,0
32984984,0,0
33001632,0,0
33018272,0,0
33034912,0,0
33051548,1,0
33068192,0,0
33084832,1,0
33101472,1,1
33118108,1,0
33134752,0,0
33151404,0,0
33168036,0,1
33184664,0,0
33201308,0,0
33217948,0,0
33234584,0,0
33251224,0,0
33267872,1,1
33284516,0,0
33301156,0,1
33317784,0,0
33334432,0,0
33351080,0,1
33367712,0,1
33384344,0,0
33400992,0,0
33417632,0,0
33434272,0,0
33450912,0,1
33467552,0,0
33484196,0,0
33500832,0,0
33517464,0,0
33534112,0,0
33550752,0,0
33567384,0,0
33584024,0,0
33600672,0,0
33617312,0,0
33633948,0,0
33650584,0,0
33667232,0,0
33683872,0,0
33700500,0,0
33717140,0,0
33733792,0,0
33750432,0,0
33767072,0,1
33783704,0,0
33800348,0,0
33816992,0,0
33833632,0,0
33850260,0,0
33866908,0,0
33883552,0,0
33900192,0,1
33916824,0,4
33933480,0,4
33950116,1,0
33966752,0,0
33983384,0,0
34000032,0,0
34016668,0,0
34033300,0,0
34049944,0,0
34066592,0,0
34083232,0,0
34099864,0,0
34116504,0,0
34133152,0,0
34149788,0,0
34166424,0,0
34183068,0,0
34199712,0,0
34216348,0,0
34232988,0,0
34249628,0,0
34266272,0,0
34282924,0,0
34299556,0,0
34316188,0,0
34332832,0,0
34349472,0,0
34366104,0,0
34382744,0,0
34399392,0,1
34416032,0,0
34432676,0,0
34449304,0,0
34465964,0,1
34482600,0,0
34499224,0,0
34515864,0,0
34532512,0,0
34549148,0,0
34565780,0,0
34582428,0,0
34599072,0,0
34615712,0,0
34632340,0,0
34648984,0,0
34665632,0,1
34682272,0,0
34698908,0,0
34715544,0,0
34732188,0,0
34748832,0,0
34765464,0,0
34782104,0,0
34798752,0,0
34815392,1,0
34832028,0,0
34848664,0,0
34865308,0,0
34881952,0,0
34898584,0,0
34915228,0,0
34931884,1,1
34948512,0,0
34965152,0,1
34981784,0,0
34998428,0,0
35015072,0,0
35031704,0,0
35048340,0,0
35064992,0,1
35081632,0,0
35098260,0,0
35114900,0,0
35131548,0,0
35148192,0,0
35164828,0,0
35181468,0,0
35198120,0,0
35214752,0,0
35231380,0,0
35248024,0,1
35264668,0,4
35281320,0,1
35297944,0,0
35314584,0,0
35331232,0,0
35347880,0,0
35364508,0,1
35381144,0,1
35397796,0,0
35414428,0,0
35431072,0,0
35447704,0,1
35464352,0,1
35480992,0,0
35497628,1,0
35514260,0,0
35530912,0,0
35547552,0,1
35564180,0,0
35580824,0,0
35597476,0,0
35614112,0,0
35630744,0,0
35647384,0,0
35664036,0,0
35680680,0,0
35697312,0,0
35713940,0,0
35730592,0,0
35747236,0,0
35763876,0,1
35780504,0,0
35797152,0,0
35813788,0,0
35830424,0,0
35847068,0,0
35863712,0,0
35880360,0,0
35897000,0,0
35913628,0,0
35930268,0,0
35946912,0,0
35963544,0,1
35980188,0,1
35996832,0,0
36013472,0,0
36030104,0,0
36046740,0,0
36063388,0,1
36080032,0,0
36096668,0,0
36113308,0,0
36129952,0,0
36146592,0,0
36163224,0,0
36179864,0,0
36196508,0,0
36213152,0,0
36229784,0,0
36246424,0,0
36263072,0,0
36279712,0,0
36296348,0,0
36312988,0,0
36329628,0,0
36346272,0,0
36362904,0,0
36379548,0,1
36396192,0,0
36412840,0,0
36429476,0,1
36446108,0,9
36462752,0,4
36479400,0,1
36496024,0,0
36512668,0,0
36529324,0,1
36545964,0,1
36562596,0,0
36579228,0,0
36595880,0,0
36612508,0,0
36629140,0,0
36645784,0,0
36662436,0,0
36679072,0,0
36695712,0,0
36712344,0,0
36729000,0,0
36745628,0,0
36762264,0,0
36778908,0,1
36795564,0,1
36812204,0,1
36828832,0,0
36845464,0,0
36862112,0,0
36878752,0,0
36895392,0,0
36912024,0,0
36928668,0,0
36945312,0,0
36961944,0,1
36978588,0,1
36995240,0,0
37011868,0,0
37028500,0,0
37045144,0,0
37061788,0,0
37078440,0,1
37095072,0,1
37111700,0,0
37128348,0,0
37145000,0,1
37161632,0,1
37178272,0,1
37194920,0,4
37211560,0,36
37229236,0,4
37245864,0,1
37262524,1,1
37279148,1,0
37295792,0,0
37312428,0,4
37329076,0,0
37345712,0,1
37362348,0,1
37378984,0,0
37395636,1,0
37412264,1,0
37428904,0,0
37445540,1,0
37462196,0,0
37478824,0,0
37495464,0,0
37512096,0,0
37528748,0,0
37545388,0,1
37562024,0,0
37578660,0,0
37595312,0,0
37611956,0,0
37628596,0,1
37645224,0,9
37661884,0,9
37678512,0,1
37695144,0,0
37711784,0,0
37728432,0,0
37745064,0,0
37761704,0,0
37778336,0,0
37794992,0,0
37811628,1,0
37828272,0,0
37844896,0,0
37861552,1,0
37878184,1,0
37894832,1,1
37911464,0,1
37928112,0,1
37944748,0,1
37961384,0,0
37978016,0,0
37994672,0,4
38011304,0,9
38027956,1,1
38044576,0,0
38061232,0,0
38077872,0,1
38094508,0,0
38111148,0,0
38127792,0,0
38144424,0,0
38161072,0,0
38177704,0,0
38194352,0,1
38210980,0,0
38227620,0,0
38244256,0,0
38260908,0,0
38277544,0,9
38294184,0,36
38311864,1,9
38328512,0,0
38345144,0,0
38361780,0,0
38378416,0,0
38395068,0,0
38411712,0,0
38428344,0,0
38444988,0,0
38461632,0,0
38478268,0,0
38494912,0,1
38511536,1,0
38528188,0,0
38544824,0,0
38561464,0,0
38578100,0,0
38594756,0,0
38611392,0,0
38628036,0,0
38644672,1,1
38661312,0,0
38677944,0,0
38694592,0,1
38711220,0,0
38727884,0,1
38744516,0,0
38761152,0,1
38777792,0,0
38794432,0,0
38811064,0,0
38827716,0,0
38844348,0,1
38860988,0,0
38877624,0,0
38894260,0,0
38910900,0,0
38927552,0,0
38944184,0,0
38960832,1,1
38977456,0,0
38994108,0,0
39010744,0,0
39027388,0,0
39044024,0,0
39060672,0,0
39077304,0,0
39093952,0,0
39110576,0,0
39127232,0,1
39143876,0,9
39160512,0,4
39177140,0,0
39193792,0,0
39210424,0,0
39227064,0,0
39243696,0,0
39260352,0,0
39276996,0,1
39293632,0,0
39310256,0,0
39326912,0,0
39343552,0,0
39360192,0,0
39376828,1,0
39393472,0,0
39410112,0,0
39426752,0,1
39443384,0,0
39460028,0,0
39476672,0,0
39493304,0,0
39509940,0,0
39526596,0,0
39543232,0,1
39559864,0,0
39576500,0,0
39593152,0,0
39609784,0,0
39626424,0,0
39643068,0,0
39659720,0,1
39676344,0,0
39692988,0,0
39709628,0,0
39726268,0,0
39742900,0,0
39759544,0,0
39776180,0,0
39792836,0,0
39809464,0,0
39826104,0,0
39842744,0,1
39859404,0,1
39876032,0,0
39892676,0,0
39909308,0,1
39925956,0,1
39942584,0,0
39959224,0,0
39975860,0,0
39992512,0,0
40009148,0,0
40025780,0,0
40042416,0,0
40059072,0,0
40075704,0,0
40092348,0,0
40108984,0,0
40125628,0,0
40142272,0,1
40158912,0,4
40175540,1,0
40192192,0,0
40208820,0,0
40225464,0,0
40242108,0,1
40258756,0,0
40275388,0,0
40292032,0,0
40308664,0,1
40325312,0,0
40341944,0,0
40358580,0,0
40375216,0,0
40391872,0,0
40408516,0,1
40425152,0,0
40441788,1,0
40458440,1,1
40475072,0,0
40491704,0,0
40508348,0,0
40524992,0,0
40541628,9,0
40558276,4,1
40574912,0,0
40591564,0,0
40608196,4,0
40624828,25,0
40642512,9,1
40659152,0,1
40675792,9,0
40692424,9,0
40709068,1,1
40725712,0,1
40742348,1,0
40758984,1,0
40775620,4,0
40792276,9,0
40808904,0,0
40825556,4,1
40842180,9,9
40858836,1,1
40875464,0,0
40892104,0,0
40908736,4,0
40925404,0,0
40942032,36,0
40959716,49,0
40977388,64,0
40995072,1,0
41011716,0,0
41028344,9,0
41044988,1,1
41061640,1,1
41078272,0,0
41094912,1,1
41111548,25,9
41129236,64,4
41146924,64,1
41164596,36,4
41182280,4,4
41198912,4,4
41215552,0,0
41232196,25,1
41249876,4,0
41266516,1,0
41283152,1,0
41299796,169,0
41318520,289,4
41337244,36,9
41354912,0,1
41371548,9,9
41388204,9,9
41404844,1,1
41421472,25,0
41439148,0,0
41455796,9,0
41472424,9,0
41489072,0,1
41505704,25,9
41523404,9,1
41540036,4,1
41556664,0,0
41573300,0,0
41589952,9,0
41606588,4,0
41623240,1,1
41639868,4,0
41656516,4,0
41673152,25,1
41690836,9,1
41707480,1,1
41724124,4,0
41740748,0,0
41757388,4,0
41774028,0,0
41790672,16,0
41808344,16,0
41826032,0,1
41842660,0,0
41859324,9,1
41875948,100,0
41894676,121,1
41913396,100,9
41932116,9,9
41948748,0,4
41965392,1,1
41982044,9,1
41998672,64,0
42016352,49,1
42034040,1,1
42050676,25,0
42068356,9,0
42084992,0,4
42101632,0,1
42118276,9,0
42134912,9,0
42151556,49,0
42169244,169,1
42187964,0,9
42204596,16,4
42222284,0,1
42238908,36,1
42256608,49,1
42274268,0,25
42291948,4,4
42308592,81,1
42326276,100,0
42345008,16,0
42362680,25,4
42380364,81,0
42398032,64,1
42415716,16,0
42433404,1,1
42450044,4,1
42466680,9,0
42483316,36,1
42501000,16,1
42518684,4,1
42535324,16,0
42552996,64,1
42570668,100,1
42589396,25,4
42607064,4,9
42623720,0,1
42640352,4,0
42656996,0,0
42673636,9,1
42690276,4,0
42706920,25,0
42724604,0,1
42741240,25,4
42758920,1,0
42775544,16,0
42793236,36,1
42810912,0,0
42827556,16,0
42845244,36,0
42862932,64,1
42880600,1,9
42897224,25,4
42914912,64,0
42932600,64,0
42950272,0,9
42966916,1,4
42983564,1,1
43000196,25,0
43017876,64,0
43035548,49,4
43053244,1,1
43069864,4,0
43086516,1,0
43103148,36,0
43120844,0,1
43137480,1,0
43154124,9,0
43170744,0,1
43187400,9,0
43204032,1,1
43220676,16,0
43238336,9,0
43254996,9,1
43271624,81,0
43289308,169,4
43308040,1,1
43324676,36,0
43342356,9,0
43358984,4,0
43375632,36,0
43393324,9,1
43409964,0,4
43426592,0,0
43443236,1,1
43459880,0,0
43476516,4,0
43493160,9,1
43509800,0,1
43526432,16,0
43544112,25,0
43561792,4,0
43578440,36,0
43596124,196,1
43614840,36,9
43632512,0,1
43649156,1,0
43665804,9,1
43682440,1,1
43699076,9,1
43715716,36,0
43733396,100,4
43752116,25,1
43769780,0,4
43786440,16,1
43804120,25,4
43821796,36,4
43839460,25,0
43857156,4,4
43873796,1,1
43890436,16,0
43908120,0,0
43924756,25,1
43942444,121,0
43961148,9,4
43977800,0,9
43994440,9,0
44011068,9,0
44027708,25,4
44045396,64,4
44063084,36,4
44080744,9,9
44097396,0,1
44114036,16,0
44131724,9,0
44148344,4,0
44164984,4,0
44181632,0,0
44198284,0,0
44214916,1,0
44231560,4,0
44248204,36,0
44265880,25,0
44283548,9,4
44300192,0,0
44316836,64,0
44334508,16,0
44352196,1,4
44368828,49,1
44386512,196,0
44405232,196,9
44423952,81,9
44441640,16,1
44459328,1,1
44475948,49,0
44493636,36,4
44511320,0,9
44527956,1,0
44544592,1,0
44561236,49,0
44578912,64,1
44596592,16,4
44614268,1,0
44630916,121,0
44649640,4,1
44666280,121,4
44684996,9,1
44701628,36,16
44720360,36,1
44738036,16,9
44755712,4,0
44772352,0,0
44788992,0,0
44805632,0,1
44822264,49,1
44839960,36,0
44857644,1,4
44874284,0,0
44890908,4,0
44907556,9,0
44924204,4,1
44940832,4,1
44957472,49,1
44975164,81,1
44992832,81,0
45010516,16,4
45028192,0,1
45044848,25,1
45062532,121,1
45081228,4,9
45097872,4,0
45114512,0,4
45131160,1,0
45147800,1,1
45164428,4,0
45181076,64,0
45198760,100,1
45217480,1,9
45234104,25,0
45251796,25,4
45269472,25,1
45287148,1,1
45303804,4,1
45320444,1,1
45337072,4,4
45353704,4,0
45370348,0,0
45387008,49,4
45404680,100,0
45423392,0,9
45440040,16,1
45457712,49,1
45475396,16,0
45493080,100,1
45511808,196,1
45530528,196,9
45549232,256,9
45567948,16,1
45585636,81,9
45603320,256,0
45622036,81,16
45640756,1,4
45657404,0,0
45674028,16,0
45691704,4,0
45708364,64,0
45726044,4,1
45742676,1,0
45759312,0,0
45775952,4,0
45792596,4,0
45809224,81,0
45826924,121,1
45845640,64,1
45863316,16,1
45880988,9,0
45897624,9,1
45914280,36,1
45931956,16,1
45949636,9,4
45966280,1,1
45982920,49,4
46000592,36,0
46018272,49,1
46035952,1,1
46052600,49,0
46070276,0,0
46086904,25,0
46104592,1,4
46121232,4,9
46137872,16,1
46155560,49,0
46173252,25,0
46190916,25,1
46208600,81,0
46226276,144,4
46244996,36,0
46262684,4,1
46279312,1,1
46295944,4,0
46312604,16,1
46330284,16,4
46347960,36,0
46365632,0,0
46382280,169,1
46401008,49,1
46418680,16,4
46436344,64,4
46454044,36,9
46471724,0,0
46488352,0,0
46505000,25,1
46522684,4,0
46539316,9,0
46555960,4,0
46572596,49,0
46590276,25,0
46607960,0,1
46624588,81,0
46642272,4,0
46658924,9,1
46675556,1,0
46692192,0,0
46708836,1,0
46725480,16,0
46743156,16,0
46760840,0,1
46777484,0,0
46794124,81,1
46811788,81,4
46829472,36,9
46847164,25,0
46864832,64,0
46882516,121,4
46901228,4,4
46917876,9,4
46934516,25,0
46952200,16,0
46969876,49,0
46987556,0,0
47004200,9,1
47020840,25,9
47038524,169,0
47057232,25,4
47074912,4,16
47092588,1,0
47109236,4,0
47125876,1,1
47142508,36,0
47160192,9,4
47176836,16,4
47194520,9,1
47211148,4,0
47227796,49,1
47245476,36,1
47263152,9,0
47279788,9,0
47296428,100,0
47315164,0,0
47331796,4,4
47348436,9,1
47365072,81,1
47382760,36,16
47401476,81,4
47419156,36,0
47436844,0,1
47453488,1,0
47470132,0,1
47486752,0,4
47503396,1,0
47520032,25,1
47537704,4,0
47554356,4,1
47571012,49,1
47588680,64,1
47606348,49,4
47624032,36,4
47641724,1,1
47658356,1,0
47675000,4,0
47691640,16,0
47709324,0,1
47725964,49,1
47743636,1,4
47760288,9,9
47776920,0,0
47793552,4,0
47810192,4,0
47826832,9,1
47843488,100,4
47862188,121,0
47880912,9,4
47897548,169,0
47916272,169,4
47935000,16,1
47952676,1,9
47969324,16,1
47987004,25,1
48004672,36,1
48022348,36,0
48040044,16,1
48057724,0,4
48074356,16,0
48092036,25,0
48109716,4,0
48126352,25,0
48144036,4,1
48160672,0,0
48177324,0,0
48193960,1,0
48210596,16,4
48228264,1,16
48245968,64,4
48263640,100,1
48282356,4,4
48298988,49,1
48316676,144,0
48335396,4,0
48352036,16,0
48369728,1,0
48386356,9,0
48402996,0,1
48419628,1,0
48436276,36,0
48453952,169,4
48472680,121,9
48491396,16,16
48510124,144,9
48528832,49,0
48546516,1,1
48563136,0,0
48579800,9,0
48596440,1,0
48613080,100,4
48631784,49,0
48649476,9,9
48666104,0,0
48682760,64,1
48700444,25,0
48718124,0,4
48734768,1,0
48751396,9,4
48768036,4,0
48784676,36,0
48802356,25,1
48820036,16,4
48837712,100,0
48856448,144,4
48875156,169,1
48893868,25,9
48911552,1,4
48928196,1,1
48944836,4,0
48961472,49,1
48979164,64,1
48996840,1,4
49013476,9,1
49030112,25,1
49047804,9,4
49064424,49,0
49082112,16,1
49099796,1,0
49116448,25,1
49134120,16,0
49151796,9,4
49168448,16,1
49186124,121,1
49204836,1,4
49221472,9,1
49238124,16,1
49255796,100,0
49274508,144,0
49293236,100,0
49311960,36,4
49329624,144,4
49348356,169,4
49367080,64,9
49384752,16,1
49402428,16,0
49420104,81,0
49437792,16,0
49455484,9,0
49472128,81,0
49489800,100,1
49508528,16,4
49526196,16,1
49543876,100,1
49562592,0,9
49579244,64,9
49596908,16,0
49614596,0,1
49631228,100,0
49649952,441,0
49668676,196,9
49687384,16,25
49706116,4,1
49722764,1,0
49739400,36,4
49757072,4,1
49773724,0,1
49790356,81,0
49808036,289,1
49826748,144,9
49845488,0,9
49862112,0,0
49878760,100,0
49897468,196,4
49916204,81,9
49933864,0,1
49950508,81,0
49968204,169,0
49986920,169,9
50005636,64,9
50023312,36,9
50041004,36,9
50058676,25,4
50076356,4,4
50093000,36,4
50110676,16,0
50128364,4,1
50145000,49,0
50162672,1,1
50179324,9,1
50195952,16,0
50213628,1,0
50230272,25,0
50247956,1,0
50264596,36,4
50282280,1,0
50298928,64,1
50316592,121,0
50335316,16,0
50353004,81,0
50370676,361,4
50389404,196,9
50408112,36,9
50425784,196,4
50444512,361,1
50463224,49,9
50480912,1369,1
50500676,1521,16
50521472,4,81
50539144,1936,9
50558912,529,36
50578684,49,49
50597404,0,1
50614024,256,0
50632752,1521,1
50652512,1369,64
50673308,196,81
50693068,0,0
50709712,400,49
50729476,225,16
50749232,676,4
50767956,361,144
50788748,1521,0
50808496,2025,81
50829284,4096,36
50850116,841,361
50870912,2916,25
50891696,324,324
50912508,4624,1
50932256,4225,81
50953072,7225,25
50973868,36,361
50993616,25921,324
51016516,0,676
51035224,27889,3136
51059140,8836,1936
51082028,64,1600
51102828,1024,625
51124672,2401,81
51145460,1936,169
51167316,441,0
51186036,0,121
51204740,1296,121
51226576,625,36
51246340,10404,16
51268176,8100,729
51290016,0,64
51307700,20449,2809
51331628,1849,1024
51354492,24964,9
51375308,6084,25
51396108,26569,1600
51420012,0,81
51437696,17161,3249
51461628,1,961
51480360,2500,0
51500120,1024,1
51519872,4761,16
51540664,576,25
51560408,4225,169
51582272,10201,100
51605136,13689,289
51628008,10201,625
51650900,256,900
51671712,3481,576
51693540,12321,25
51715388,11025,529
51738264,900,900
51759044,6889,441
51780908,13456,100
51803796,6400,1089
51826664,1089,196
51848504,9801,9
51868272,0,484
51886984,4900,2401
51909860,18769,2116
51933784,784,81
51953540,19321,49
51975388,7921,2025
51998260,18496,100
52021140,5625,1
52040904,8100,2025
52063788,0,9
52080424,5041,2809
52103296,16900,4
52124092,6561,2025
52146984,625,324
52167784,7569,144
52189620,25,1
52207292,15376,225
52230188,22500,9
52250972,18225,2916
52274904,7921,1764
52297788,16,400
52317552,3969,529
52339384,324,16
52359136,64,484
52378908,729,1
52397632,324,1
52416348,2025,169
52438184,3721,144
52460024,1849,676
52481884,196,100
52502680,64,1
52520364,361,16
52540108,0,0
52556744,3136,81
52577552,4096,81
52598356,784,529
52619160,0,49
52636844,9,25
52654520,1,100
52673228,784,0
52691936,9409,9
52711716,17161,9
52732504,7225,625
52754324,12996,1089
52778232,0,441
52796976,0,1764
52816736,8100,4096
52839624,4096,841
52861456,30625,1
52882256,24649,1369
52906196,15625,2809
52930104,16900,1
52950900,14161,625
52973800,31684,576
52996668,6084,1600
53019544,1089,16
53040340,4225,100
53062196,7569,121
53084024,225,81
53103796,5625,64
53124596,18496,16
53146416,8281,784
53168260,9409,2304
53191136,14400,400
53214036,5041,324
53235872,7744,1024
53258736,1296,169
53280584,3969,225
53302424,1225,16
53323220,36,196
53343000,361,4
53361716,4761,9
53381468,7225,81
53402260,1681,441
53424100,441,256
53444924,784,49
53464668,529,9
53483384,1369,121
53505236,784,1
53523944,2401,324
53545776,12769,4
53566584,7056,169
53588416,784,1156
53610260,6084,9
53630032,729,400
53650828,729,9
53669552,2704,1
53689304,196,576
53710120,64,64
53728824,25,81
53747548,784,81
53767304,361,4
53786020,3969,225
53807852,6241,196
53829724,0,16
53847376,12305,1521
53871308,0,3025
53891060,4489,3025
53913944,225,1225
53935784,2401,9
53955548,3025,16
53976352,4,324
53995076,1521,9
54014832,16,49
54033568,100,1
54052284,256,16
54072016,3969,81
54092832,20164,4
54113632,5625,1369
54136516,1,784
54155228,36,0
54172924,121,49
54192676,3364,64
54213460,4225,16
54234272,4,529
54252984,0,441
54271700,9409,49
54292508,17424,100
54315384,8281,1521
54338252,5329,196
54360120,361,49
54379868,1296,625
54401712,361,36
54421456,81,441
54441232,1521,196
54463068,6400,36
54483860,21025,625
54506752,15129,441
54529636,900,784
54550428,4,900
54569160,1,64
54586840,36,4
54604500,729,4
54623224,6400,4
54642996,1849,169
54664820,400,289
54685624,729,25
54705396,3600,36
54726180,9216,16
54746980,529,484
54767788,4225,49
54788580,576,625
54809388,1225,49
54830192,169,0
54848912,625,361
54869696,576,1
54888428,1,16
54906104,12769,441
54928980,0,169
54947700,17424,1369
54971648,1156,3364
54994512,4624,289
55016340,16900,25
55038188,2916,361
55060020,81,676
55079780,1849,1
55099564,900,49
55119312,9,64
55136988,529,16
55156748,6084,0
55176496,1225,256
55198356,900,324
55219132,676,16
55238900,64,9
55256580,5329,0
55276336,12769,64
55298188,5184,169
55320036,1369,529
55341876,9,0
55358528,25,36
55377232,49,1
55394908,0,16
55412580,225,81
55432340,484,0
55451064,1849,1
55470828,1296,1
55490604,36,256
55510364,625,81
55530100,4761,25
55550896,2209,81
55571704,1764,196
55593536,6724,4
55613304,729,81
55633080,9,4
55649700,1296,4
55669472,324,49
55689240,729,4
55707952,4900,121
55729772,20449,64
55751604,19321,256
55774504,6084,1156
55797388,2025,361
55819224,784,16
55839004,1681,144
55860820,256,16
55880576,2401,0
55900356,1521,0
55920120,169,100
55940912,2304,144
55962760,3721,121
55984588,1024,324
56006420,576,225
56027228,5184,9
56047004,2401,121
56068836,2209,256
56090680,225,169
56111456,6241,196
56133296,2809,16
56154124,289,576
56174916,289,4
56193640,9,64
56211304,441,9
56230040,576,9
56248740,1849,25
56269544,1681,121
56291392,256,289
56312188,2401,9
56331952,900,144
56352740,961,36
56372512,576,81
56392244,10404,169
56415132,25600,16
56436988,7056,1764
56459852,10816,784
56482708,0,64
56500420,0,2500
56520188,144,3600
56542008,23409,49
56563876,0,484
56582572,9216,784
56604408,81,1225
56625228,3249,0
56644992,27889,49
56666828,0,2601
56686576,784,4356
56708428,15129,676
56731308,13924,225
56754188,4624,441
56776032,81,324
56795784,3249,169
56817620,2500,121
56839476,900,169
56860260,4900,0
56880016,6561,256
56901872,49,1024
56922672,2209,49
56943468,2025,196
56965304,144,0
56984012,289,64
57003772,4,36
57021460,2116,144
57043312,4,25
57060988,1521,1
57080736,529,81
57100508,3025,0
57120268,8464,225
57142108,3249,144
57163968,361,676
57184760,256,289
57205540,225,0
57224272,3600,4
57244032,4761,49
57264812,289,225
57285620,289,81
57305396,64,0
57323080,225,9
57341792,3481,4
57361540,4489,81
57382336,2116,225
57404180,3721,64
57425000,9,100
57443704,7056,100
57465540,6889,169
57487388,4225,576
57509232,6084,81
57530032,1849,400
57551864,144,484
57572676,4356,1
57592432,0,100
57611132,0,2116
57630896,256,2704
57652752,28561,289
57675620,4225,324
57697476,256,576
57718260,13924,49
57740104,12544,400
57762988,5625,1024
57785868,81,81
57804592,121,196
57825404,49,196
57845152,49,4
57862840,2304,16
57883624,100,49
57903380,1444,64
57924180,8281,121
57946024,841,121
57966820,1521,100
57988668,1444,36
58009468,4489,1
58029240,1764,225
58051064,484,64
58070828,4900,16
58091620,1089,169
58113456,2601,225
58135312,1024,121
58157152,961,225
58177956,529,1
58196672,49,169
58216428,1,16
58234124,9,16
58251796,25,25
58270516,841,1
58289240,144,0
58307964,729,144
58328752,1521,4
58348500,196,289
58369308,1444,49
58390116,1764,1
58409872,289,36
58429636,1156,25
58450428,121,25
58470196,121,16
58489964,1156,1
58509716,2116,16
58530516,900,144
58551316,441,25
58571068,256,0
58589796,256,0
58608508,25,36
58627232,361,0
58645952,225,9
58664672,64,81
58683380,900,0
58702104,529,16
58721856,15876,25
58743704,12996,324
58766600,1444,1521
58789468,196,361
58810264,4,16
58827952,16,64
58846680,25,1
58864368,16,49
58883088,100,1
58901792,625,16
58921552,36,121
58941320,64,4
58958988,1849,36
58979780,8100,25
59000580,4096,289
59022420,729,169
59043228,3025,36
59064028,2916,81
59084840,16,121
59104596,784,1
59123324,196,1
59142024,6561,16
59162836,4356,121
59184676,225,400
59205472,729,144
59226276,25,25
59244992,324,81
59264732,12321,4
59285564,3844,196
59307400,400,729
59328192,2025,9
59347944,1296,256
59369804,1024,16
59390600,841,169
59411376,1089,324
59433216,121,16
59452984,25,4
59470668,23716,0
59491460,18769,121
59514344,5041,1444
59537216,529,529
59558020,9409,49
59578836,11664,64
59600652,17424,841
59623540,1225,676
59645388,784,529
59666188,2704,36
59686992,784,225
59707792,2209,81
59728576,1444,361
59750436,0,9
59767072,1681,4
59786836,9,64
59804508,1156,1
59824276,1369,0
59844028,729,81
59863796,100,100
59884584,3136,1
59904348,8281,64
59925144,2500,529
59946992,784,256
59967800,900,1
59986520,1089,64
60007320,1024,81
60028120,441,9
60046828,484,100
60067632,81,121
60087412,25,0
60105068,1296,0
60124824,529,0
60143540,3481,121
60165392,4356,4
60185140,676,400
60205944,2025,64
60226756,3249,9
60246500,9801,81
60267296,17689,25
60289144,4489,900
60310988,2916,144
60332824,1849,4
60352604,81,441
60372348,6400,256
60394176,19600,25
60416028,13456,676
60438908,49,900
60458656,3136,169
60480484,3844,256
60502344,0,121
60521068,0,1225
60540820,13924,2209
60564748,8649,576
60586584,3136,841
60608432,676,1225
60630288,2500,4
60650028,289,169
60670836,16,0
60688528,256,49
60708268,289,196
60729068,169,0
60747800,324,0
60766524,225,9
60785224,81,0
60802904,576,4
60821632,961,4
60840352,100,25
60860112,4,81
60877784,9,16
60895476,25,0
60913156,1,1
60929796,36,16
60948524,9,1
60965160,0,9
60981800,0,16
60999472,1,9
61016112,0,4
61032760,9,0
61049400,25,1
61067076,25,0
61084772,100,1
61103488,144,1
61122200,1,4
61138828,16,0
61156512,121,1
61175236,49,0
61192916,9,0
61209548,324,0
61228276,36,0
61245948,361,64
61265712,529,9
61284436,64,36
61303152,529,4
61321880,1369,1
61341632,196,9
61360348,784,36
61380120,1764,4
61399872,64,49
61418604,1681,1
61438356,256,100
61459156,0,36
61476828,1,0
61493472,4,16
61511140,0,1
61527788,36,16
61546516,0,0
61563156,1,4
61579800,289,1
61598516,256,9
61617244,25,4
61634916,25,1
61652596,1,1
61669236,4,1
61685876,0,1
61702516,25,1
61720188,4,0
61736828,1,4
61753480,0,1
61770124,25,4
61787792,16,4
61805468,9,0
61822116,1,0
61838756,1,0
61855388,1,0
61872028,0,0
61888676,0,0
61905316,0,0
61921956,4,1
61938588,9,0
61955244,1,4
61971872,0,1
61988500,0,0
62005144,0,0
62021792,0,0
62038428,0,0
62055064,0,0
62071708,0,0
62088352,0,0
62104992,0,0
62121624,0,0
62138264,0,0
62154916,1,0
62171548,0,0
62188184,0,0
62204820,0,0
62221472,0,0
62238112,0,0
62254760,0,0
62271388,0,0
62288028,0,0
62304672,0,0
62321312,0,0
62337948,0,0
62354592,0,0
62371232,0,0
62387868,0,0
62404500,0,0
62421152,0,0
62437792,0,0
62454424,0,0
62471064,0,0
62487712,0,0
62504356,1,0
62520992,0,0
62537624,0,0
62554268,0,0
62570908,0,0
62587540,0,0
62604184,0,0
62620832,0,0
62637472,1,1
62654104,1,0
62670748,0,0
62687400,0,1
62704044,1,1
62720676,0,0
62737308,0,1
62753956,0,0
62770592,0,0
62787224,0,0
62803860,0,0
62820508,0,0
62837152,0,0
62853784,0,0
62870424,0,0
62887072,0,0
62903712,0,0
62920344,0,0
62936984,0,0
62953632,0,1
62970272,0,0
62986900,0,0
63003544,0,0
63020192,0,0
63036832,0,0
63053472,0,0
63070104,0,0
63086748,0,0
63103392,0,0
63120024,0,0
63136664,0,0
63153312,0,0
63169948,0,0
63186580,0,0
63203224,0,0
63219872,0,0
63236512,0,0
63253152,0,0
63269788,0,0
63286436,0,0
63303072,0,0
63319712,0,0
63336344,0,0
63352988,0,0
63369632,0,0
63386264,0,0
63402904,0,0
63419552,0,0
63436196,0,0
63452832,0,0
63469464,0,0
63486112,0,0
63502752,0,0
63519384,0,0
63536020,0,0
63552672,0,0
63569312,0,0
63585948,0,0
63602584,0,0
63619232,0,0
63635872,0,0
63652504,0,0
63669144,0,0
63685792,0,0
63702436,0,0
63719076,0,0
63735708,0,0
63752352,0,0
63768996,0,0
63785628,0,0
63802264,0,0
63818912,0,0
63835556,0,0
63852188,0,0
63868828,0,0
63885472,0,0
63902112,0,0
63918748,0,0
63935384,0,0
63952036,1,1
63968672,0,1
63985312,0,0
64001948,0,1
64018592,0,1
64035232,0,0
64051864,0,0
64068504,0,0
64085152,0,0
64101788,0,0
64118420,0,0
64135068,0,0
64151712,0,0
64168356,0,0
64184984,0,0
64201624,0,0
64218272,0,0
64234912,0,0
64251544,0,0
64268180,0,0
64284828,0,0
64301468,0,0
64318104,0,0
64334740,0,0
64351388,0,0
64368032,0,0
64384664,0,0
64401308,0,0
64417952,0,0
64434592,0,0
64451224,0,0
64467864,0,0
64484512,0,0
64501156,0,0
64517792,0,0
64534424,0,0
64551072,0,0
64567708,0,0
64584344,0,0
64600984,0,0
64617632,0,0
64634268,0,0
64650912,0,0
64667544,0,0
64684188,0,0
64700832,0,0
64717464,0,0
64734108,0,0
64750752,0,0
64767392,0,0
64784020,0,0
64800668,1,0
64817312,0,0
64833952,0,0
64850592,1,0
64867224,0,0
64883876,0,1
64900512,0,0
64917144,0,0
64933784,0,0
64950432,1,0
64967072,0,0
64983708,0,0
65000344,0,0
65016992,0,0
65033632,0,0
65050272,0,0
65066904,0,0
65083552,0,0
65100192,0,0
65116824,0,0
65133468,0,1
65150116,0,1
65166764,0,1
65183392,0,0
65200028,0,0
65216684,0,1
65233316,0,0
65249948,1,0
65266588,1,0
65283228,0,0
65299868,0,0
65316504,0,0
65333144,0,0
65349792,0,0
65366440,0,0
65383064,0,0
65399708,0,0
65416352,0,0
65432992,0,0
65449628,0,0
65466264,0,0
65482912,0,0
65499552,0,0
65516184,0,0
65532824,0,0
65549472,0,0
65566112,0,0
65582740,1,0
65599384,0,0
65616032,0,0
65632672,0,0
65649304,0,0
65665944,0,0
65682596,0,0
65699240,0,1
65715872,0,1
65732508,0,0
65749152,0,0
65765788,0,0
65782420,0,0
65799064,0,0
65815716,0,0
65832352,0,0
65848992,0,0
65865624,0,0
65882268,0,0
65898916,0,1
65915552,0,1
65932184,0,0
65948832,0,0
65965472,0,0
65982104,0,0
65998744,0,0
66015392,0,0
66032032,0,0
66048676,1,0
66065308,1,0
66081952,0,0
66098592,0,0
66115224,0,0
66131864,0,1
66148508,0,1
66165152,0,0
66181792,0,1
66198424,1,0
66215072,0,0
66231716,0,1
66248356,0,1
66264980,0,0
66281632,0,0
66298268,0,0
66314916,0,1
66331552,1,1
66348196,0,1
66364828,0,0
66381464,0,0
66398104,0,0
66414752,0,0
66431392,0,0
66448032,0,0
66464664,0,0
66481312,0,0
66497952,1,0
66514584,0,0
66531224,0,0
66547872,0,0
66564516,1,0
66581152,1,1
66597780,0,0
66614432,0,0
66631072,0,0
66647708,0,1
66664344,0,0
66680992,0,0
66697636,0,0
66714264,0,0
66730904,0,0
66747560,0,0
66764200,0,0
66780824,0,0
66797464,0,0
66814112,0,0
66830752,0,0
66847384,0,0
66864024,0,0
66880672,0,1
66897312,0,0
66913940,0,0
66930580,0,0
66947228,0,0
66963868,0,0
66980504,0,0
66997144,0,1
67013792,0,0
67030440,0,0
67047068,0,0
67063708,0,0
67080348,0,0
67096992,0,0
67113624,0,0
67130260,0,0
67146912,0,1
67163552,0,0
67180180,0,0
67196824,0,1
67213476,1,0
67230120,0,1
67246744,0,0
67263384,0,0
67280036,0,1
67296688,0,4
67313316,0,1
67329948,0,0
67346592,0,0
67363236,0,0
67379864,0,0
67396504,0,0
67413152,0,0
67429792,0,0
67446436,0,0
67463068,0,0
67479708,0,0
67496360,1,0
67512992,0,0
67529620,0,0
67546272,0,0
67562912,0,0
67579540,0,0
67596184,1,0
67612836,1,0
67629484,0,1
67646108,0,0
67662740,0,0
67679392,0,0
67696032,0,0
67712672,0,0
67729308,0,0
67745952,0,0
67762592,0,0
67779228,0,0
67795860,0,0
67812508,0,0
67829152,0,0
67845784,0,0
67862424,0,0
67879072,0,0
67895712,0,0
67912348,1,0
67928984,1,0
67945632,0,0
67962272,0,1
67978912,1,0
67995544,0,0
68012192,0,0
68028832,0,0
68045464,0,0
68062100,0,0
68078760,0,1
68095392,0,0
68112028,1,0
68128668,1,0
68145316,1,0
68161948,0,0
68178584,0,0
68195224,0,0
68211872,0,0
68228508,0,0
68245144,0,0
68261780,0,0
68278432,0,0
68295072,0,0
68311704,0,0
68328348,0,0
68344992,0,0
68361628,0,0
68378264,0,0
68394900,0,0
68411548,0,0
68428192,0,0
68444820,0,0
68461464,0,0
68478112,0,0
68494752,0,0
68511384,0,0
68528028,1,0
68544672,1,0
68561312,0,0
68577940,0,0
68594580,0,0
68611232,0,0
68627872,0,0
68644508,0,0
68661144,0,0
68677788,0,0
68694432,1,0
68711072,0,0
68727708,0,0
68744352,0,0
68760992,0,0
68777624,0,0
68794264,0,0
68810916,0,0
68827552,0,0
68844192,0,0
68860824,0,0
68877472,0,0
68894108,0,0
68910744,0,0
68927388,0,0
68944036,0,0
68960676,0,0
68977304,0,0
68993944,0,0
69010596,1,0
69027236,1,0
69043872,0,0
69060504,0,0
69077148,0,0
69093792,0,0
69110424,0,0
69127064,0,0
69143724,0,0
69160360,0,0
69176992,0,0
69193624,0,0
69210276,0,0
69226916,0,0
69243556,0,0
69260184,0,0
69276832,0,0
69293484,0,1
69310112,0,1
69326744,0,0
69343392,0,0
69360032,0,0
69376660,0,0
69393304,0,0
69409956,0,0
69426592,0,0
69443232,0,0
69459864,0,0
69476520,0,0
69493152,0,0
69509784,0,0
69526428,0,0
69543068,0,0
69559708,0,0
69576340,0,0
69592984,0,0
69609632,0,0
69626284,0,0
69642904,0,0
69659540,0,0
69676192,0,0
69692832,0,0
69709460,0,0
69726104,0,0
69742748,0,0
69759392,0,0
69776032,0,0
69792664,0,0
69809312,0,0
69825952,0,0
69842584,0,0
69859220,0,0
69875868,0,0
69892508,0,0
69909144,0,0
69925788,0,0
69942432,0,0
69959068,0,0
69975704,1,0
69992344,0,0
70008992,0,0
70025636,0,0
70042264,0,0
70058904,0,0
70075548,0,0
70092192,0,0
70108824,0,0
70125464,0,0
70142108,0,0
70158748,0,0
70175388,1,0
70192028,1,0
70208672,0,0
70225312,0,0
70241944,0,0
70258584,0,0
70275232,1,0
70291872,1,0
70308512,0,0
70325144,0,0
70341796,0,0
70358428,0,0
70375072,0,0
70391708,0,0
70408352,0,0
70424992,0,0
70441624,0,0
70458264,0,0
70474916,1,0
70491556,0,1
70508196,0,0
70524828,0,0
70541472,0,0
70558108,0,0
70574740,0,0
70591384,0,0
70608036,0,0
70624672,0,0
70641304,0,0
70657944,0,0
70674592,0,0
70691232,1,0
70707876,1,0
70724504,0,0
70741152,0,0
70757796,1,0
70774424,4,0
70791068,4,1
70807724,4,0
70824364,0,1
70840992,9,1
70857624,16,0
70875316,16,0
70892992,0,1
70909632,4,1
70926264,0,0
70942912,25,0
70960592,100,1
70979324,4,1
70995948,169,1
71014684,0,1
71031320,100,0
71050028,36,16
71068756,9,9
71085404,16,0
71103072,0,0
71119712,0,1
71136352,25,1
71154032,9,0
71170672,0,0
71187308,1,0
71203956,0,0
71220592,1,0
71237236,1,1
71253872,25,0
71271564,1,1
71288192,1,0
71304828,4,0
71321468,1,0
71338112,16,0
71355800,4,1
71372448,4,1
71389072,4,0
71405708,0,0
71422352,0,0
71438996,9,0
71455632,16,0
71473324,1,0
71489964,1,1
71506596,9,0
71523228,4,1
71539876,0,0
71556520,1,0
71573144,0,0
71589788,0,0
71606432,4,0
71623076,9,0
71639720,0,0
71656348,4,0
71672992,0,1
71689648,0,1
71706280,1,0
71722908,1,1
71739556,9,0
71756192,25,0
71773872,0,1
71790508,4,0
71807164,25,1
71824840,0,0
71841472,9,0
71858100,1,0
71874752,0,0
71891388,4,0
71908028,1,0
71924672,9,1
71941316,16,4
71958988,1,0
71975636,0,0
71992264,1,0
72008916,0,0
72025556,4,0
72042184,16,0
72059868,4,0
72076516,1,0
72093152,4,0
72109796,9,0
72126428,9,0
72143076,4,0
72159700,0,0
72176344,1,0
72192992,1,0
72209644,1,1
72226272,0,1
72242920,1,0
72259552,16,0
72277236,49,1
72294920,4,1
72311552,0,1
72328180,1,0
72344836,1,0
72361476,4,1
72378112,0,0
72394748,16,1
72412432,16,0
72430124,4,1
72446756,4,1
72463392,0,1
72480032,0,0
72496672,0,0
72513308,0,0
72529952,1,1
72546592,16,0
72564280,16,0
72581948,1,0
72598584,9,0
72615236,49,0
72632916,64,4
72650596,4,9
72667232,0,1
72683872,9,0
72700508,25,0
72718188,1,1
72734832,0,0
72751476,1,0
72768116,4,0
72784744,9,0
72801400,1,1
72818040,9,0
72834676,0,1
72851304,0,0
72867956,0,0
72884604,4,1
72901232,4,0
72917880,16,0
72935560,36,1
72953244,1,4
72969872,4,0
72986504,1,0
73003152,0,0
73019796,1,0
73036432,0,0
73053076,1,0
73069712,4,0
73086352,4,0
73102996,36,0
73120668,81,0
73138364,4,4
73154992,0,4
73171624,0,0
73188256,0,1
73204920,0,1
73221556,25,0
73239248,16,0
73256920,4,1
73273568,4,0
73290196,1,1
73306828,1,0
73323460,16,0
73341164,36,1
73358836,36,0
73376520,25,1
73394196,9,0
73410836,1,0
73427476,1,0
73444116,25,0
73461792,25,0
73479476,4,0
73496108,25,1
73513796,0,0
73530428,0,0
73547072,0,0
73563708,1,0
73580344,0,0
73597000,36,0
73614680,16,1
73632344,25,1
73650024,100,1
73668764,81,4
73686444,9,4
73703076,0,1
73719708,4,4
73736360,16,1
73754032,16,1
73771720,1,4
73788340,1,0
73805000,0,0
73821620,0,0
73838268,4,0
73854904,16,0
73872596,1,0
73889224,4,0
73905860,0,0
73922508,1,1
73939152,9,1
73955784,0,0
73972424,1,0
73989068,1,0
74005712,0,0
74022340,0,0
74038988,4,0
74055616,16,0
74073316,1,0
74089956,1,0
74106592,9,0
74123220,4,0
74139888,4,0
74156512,25,0
74174196,25,1
74191868,9,1
74208516,1,0
74225144,1,0
74241796,1,0
74258428,0,0
74275072,0,0
74291712,1,0
74308352,25,1
74326044,25,0
74343724,1,0
74360364,1,1
74376984,0,0
74393632,0,0
74410288,0,1
74426924,9,0
74443556,9,0
74460200,0,1
74476832,9,0
74493484,0,0
74510124,9,1
74526764,1,0
74543396,1,0
74560040,0,0
74576672,0,0
74593316,1,0
74609952,1,1
74626600,1,0
74643236,1,4
74659880,1,1
74676512,0,0
74693164,4,1
74709788,1,0
74726432,16,0
74744112,25,0
74761792,16,1
74779472,9,0
74796112,36,0
74813804,81,1
74831476,0,1
74848116,25,1
74865796,9,0
74882432,9,0
74899076,9,0
74915712,25,0
74933400,4,1
74950048,1,4
74966680,4,1
74983312,9,0
74999956,9,1
75016596,0,0
75033240,64,1
75050904,289,4
75069628,64,4
75087316,16,1
75104996,100,0
75123708,81,1
75141404,1,4
75158048,9,1
75174680,81,0
75192360,36,4
75210036,9,4
75226676,16,0
75244352,121,0
75263084,25,4
75280764,1,9
75297396,16,1
75315076,0,4
75331720,9,0
75348356,25,0
75366036,16,0
75383704,0,4
75400348,0,4
75416996,4,1
75433636,25,0
75451316,4,1
75467964,36,4
75485628,16,0
75503312,0,1
75519940,16,0
75537636,25,1
75555316,1,0
75571956,1,0
75588580,0,0
75605236,1,0
75621876,0,1
75638500,0,0
75655136,4,0
75671796,4,0
75688436,9,0
75705072,1,0
75721704,16,0
75739396,4,0
75756024,4,1
75772668,1,0
75789300,9,1
75805964,16,0
75823644,0,1
75840276,9,0
75856912,0,0
75873556,4,0
75890212,4,0
75906832,1,0
75923472,0,0
75940120,0,1
75956756,1,4
75973396,1,0
75990040,4,0
76006684,4,1
76023320,1,4
76039944,0,0
76056592,16,0
76074284,36,0
76091952,25,0
76109632,16,0
76127320,0,0
76143948,0,0
76160588,9,0
76177232,16,1
76194912,0,1
76211552,25,4
76229240,169,1
76247960,1,4
76264604,225,9
76283320,81,4
76300992,4,4
76317616,0,0
76334276,1,0
76350916,0,1
76367556,49,0
76385228,196,0
76403952,49,9
76421632,0,4
76438276,0,0
76454908,36,1
76472604,225,0
76491316,144,9
76510032,16,9
76527728,0,0
76544368,1,1
76561000,1,0
76577636,9,1
76594280,36,1
76611960,4,4
76628588,9,0
76645240,16,0
76662924,4,0
76679568,1,0
76696196,0,4
76712836,16,0
76730524,121,0
76749232,256,9
76767960,121,16
76787704,25,4
76805404,49,1
76823080,64,9
76840756,4,1
76857400,0,1
76874048,1,1
76890668,0,0
76907308,1,0
76923956,0,0
76940592,0,1
76957228,0,0
76973868,0,0
76990524,0,1
77007152,9,0
77023788,25,0
77041472,0,1
77058116,16,0
77075796,0,0
77092440,1,0
77109076,1,0
77125724,36,1
77143400,81,0
77161076,4,1
77177716,0,1
77194372,49,0
77212048,144,0
77230748,0,9
77247388,81,4
77265084,9,1
77281716,49,0
77299396,36,1
77317076,0,1
77333712,1,1
77350356,9,0
77366988,9,0
77383640,9,1
77400288,49,0
77417948,36,0
77435628,49,4
77453300,16,0
77471004,1,0
77487632,1,0
77504264,0,0
77520920,1,0
77537556,4,0
77554204,0,1
77570828,0,0
77587476,1,0
77604120,25,1
77621804,36,1
77639484,1,4
77656116,1,4
77672756,1,0
77689396,36,0
77707076,81,0
77724764,0,4
77741408,0,1
77758036,36,1
77775712,0,0
77792356,9,0
77809000,25,1
77826684,25,4
77844364,0,1
77861004,1,1
77877632,16,1
77895312,4,0
77911956,1,1
77928596,0,1
77945240,1,0
77961868,4,0
77978508,1,0
77995156,9,0
78011796,9,0
78028440,36,0
78046108,16,1
78063796,0,1
78080428,4,0
78097068,4,0
78113712,36,0
78131400,0,0
78148032,1,0
78164668,36,0
78182352,121,0
78201076,49,4
78218744,16,9
78236428,4,0
78253076,4,0
78269724,36,1
78287396,16,1
78305076,0,1
78321724,1,0
78338360,1,0
78354988,36,0
78372668,81,4
78390360,25,9
78408044,1,4
78424684,16,1
78442356,0,0
78458992,64,0
78476680,100,1
78495396,0,9
78512028,121,0
78530760,64,4
78548432,0,4
78565072,0,1
78581708,9,1
78598364,25,1
78616036,16,1
78633720,1,1
78650352,1,0
78667000,0,0
78683636,0,1
78700276,25,0
78717960,49,0
78735636,0,0
78752280,0,4
78768916,9,0
78785556,1,0
78802204,9,1
78818836,9,0
78835476,16,0
78853156,0,0
78869792,0,0
78886444,1,0
78903076,4,1
78919716,4,0
78936356,1,0
78952992,9,0
78969636,1,4
78986272,0,0
79002912,4,1
79019556,0,0
79036188,9,0
79052836,49,1
79070524,49,1
79088196,25,4
79105876,0,1
79122524,9,0
79139164,1,0
79155796,1,0
79172424,1,0
79189068,0,0
79205716,4,0
79222352,1,0
79238988,4,0
79255640,16,0
79273316,1,0
79289952,0,1
79306588,1,0
79323240,16,0
79340920,100,4
79359628,36,1
79377304,4,4
79393952,0,1
79410596,16,0
79428264,25,0
79445952,36,1
79463636,9,1
79480264,25,0
79497952,100,0
79516680,1,0
79533320,81,0
79550996,16,4
79568676,1,1
79585328,1,0
79601952,49,0
79619636,100,0
79638356,16,4
79656032,9,1
79672676,4,0
79689320,4,0
79705948,4,0
79722600,0,0
79739232,4,0
79755864,9,0
79772512,9,0
79789148,0,1
79805796,9,0
79822436,121,1
79841144,121,4
79859872,9,4
79876516,4,1
79893148,4,1
79909788,0,0
79926440,16,1
79944112,9,1
79960756,9,1
79977380,49,0
79995076,16,0
80012756,4,4
80029400,1,1
80046028,0,0
80062672,0,0
80079320,1,0
80095944,36,0
80113628,9,0
80130276,0,0
80146916,0,0
80163552,81,0
80181228,256,0
80199968,1,9
80216600,9,1
80233236,1,1
80249880,4,1
80266524,64,1
80284204,36,4
80301880,4,1
80318524,1,1
80335160,4,0
80351796,4,0
80368428,4,0
80385084,36,0
80402768,36,0
80420436,16,4
80438108,4,0
80454756,4,0
80471392,0,0
80488024,1,0
80504672,49,0
80522360,0,1
80538996,1,0
80555636,0,0
80572268,0,0
80588924,4,0
80605552,9,1
80622196,169,1
80640920,361,4
80659632,49,9
80677320,9,9
80693952,25,1
80711628,16,1
80729312,36,1
80746996,1,0
80763632,0,0
80780268,1,0
80796924,0,1
80813552,0,0
80830192,0,0
80846820,0,0
80863476,4,0
80880116,36,1
80897792,64,4
80915480,25,4
80933160,1,1
80949792,0,0
80966432,0,0
80983076,4,0
80999712,16,0
81017396,0,1
81034032,36,0
81051724,16,0
81069408,4,1
81086028,36,0
81103716,4,1
81120360,0,1
81137004,49,0
81154688,25,1
81172356,4,9
81189004,0,0
81205640,225,1
81224352,841,1
81243056,324,16
81262836,64,25
81281560,25,4
81299232,0,1
81315880,0,1
81332520,0,1
81349156,4,0
81365796,25,0
81383484,4,0
81400124,0,1
81416756,1,0
81433392,0,0
81450032,0,0
81466676,1,0
81483308,1,0
81499956,1,1
81516592,0,0
81533232,0,0
81549876,0,0
81566516,0,0
81583152,0,0
81599792,0,0
81616424,0,0
81633064,0,0
81649712,0,0
81666352,0,0
81682980,0,0
81699624,0,0
81716272,0,0
81732912,0,0
81749556,0,0
81766188,0,0
81782832,0,0
81799472,0,0
81816104,0,0
81832744,0,0
81849404,0,1
81866032,0,0
81882660,0,0
81899304,0,0
81915952,0,0
81932592,0,0
81949228,0,0
81965860,0,0
81982508,0,0
81999152,0,0
82015792,0,0
82032428,0,0
82049084,0,1
82065716,0,0
82082344,0,0
82098984,0,0
82115632,0,0
82132276,0,0
82148916,0,0
82165548,0,0
82182192,0,0
82198836,0,0
82215468,0,0
82232112,0,0
82248752,0,0
82265392,0,0
82282024,0,0
82298664,0,0
82315312,0,0
82331952,0,0
82348592,0,0
82365232,1,1
82381880,0,1
82398512,0,0
82415152,0,0
82431784,0,0
82448432,0,0
82465068,0,0
82481704,0,0
82498344,0,0
82514996,0,0
82531644,0,0
82548264,0,0
82564912,0,0
82581552,0,0
82598196,0,0
82614824,0,0
82631464,0,0
82648112,0,0
82664752,0,0
82681388,0,0
82698032,0,0
82714672,0,1
82731324,0,0
82747952,0,0
82764592,0,0
82781232,0,0
82797872,0,0
82814504,0,0
82831152,0,0
82847792,0,0
82864432,0,0
82881072,0,0
82897712,0,0
82914352,0,0
82930992,1,0
82947632,0,0
82964272,0,1
82980916,1,0
82997564,0,0
83014192,0,0
83030828,0,0
83047476,0,0
83064112,0,0
83080744,0,0
83097384,0,0
83114036,0,1
83130672,0,1
83147316,0,1
83163952,0,0
83180596,1,1
83197244,0,4
83213872,0,0
83230504,0,0
83247148,0,0
83263792,0,0
83280424,0,0
83297060,0,0
83313716,0,0
83330352,0,0
83346984,0,0
83363632,0,0
83380276,0,1
83396924,0,1
83413556,0,1
83430196,0,0
83446836,0,0
83463468,0,0
83480108,1,0
83496744,0,0
83513392,0,0
83530044,0,1
83546668,0,0
83563300,0,0
83579952,0,0
83596592,0,0
83613224,0,0
83629868,0,0
83646520,0,0
83663152,0,0
83679792,0,0
83696424,0,0
83713076,0,0
83729712,0,0
83746352,0,0
83762984,0,0
83779632,0,0
83796272,0,0
83812904,0,0
83829552,0,0
83846196,0,1
83862836,0,1
83879464,0,0
83896104,0,0
83912752,0,0
83929392,0,0
83946024,0,0
83962664,0,0
83979316,1,0
83995952,0,0
84012584,0,0
84029224,0,0
84045872,0,0
84062512,0,0
84079144,0,0
84095784,0,0
84112432,0,0
84129072,0,0
84145704,0,0
84162352,0,0
84178992,0,0
84195632,0,0
84212272,0,0
84228904,0,0
84245548,0,0
84262192,0,0
84278832,0,1
84295472,0,1
84312116,0,1
84328752,0,0
84345400,0,0
84362032,0,0
84378676,1,0
84395316,1,0
84411948,1,0
84428584,0,0
84445232,0,0
84461872,0,0
84478504,0,0
84495144,0,0
84511792,0,0
84528432,0,0
84545064,0,0
84561700,0,0
84578352,0,0
84594992,0,1
84611632,0,0
84628264,0,0
84644912,0,0
84661552,0,0
84678180,0,0
84694828,0,0
84711468,0,0
84728112,0,0
84744740,0,0
84761384,0,0
84778032,0,0
84794676,0,0
84811304,0,0
84827952,0,0
84844592,0,0
84861232,0,0
84877864,0,0
84894504,0,0
84911152,0,0
84927792,0,0
84944424,0,0
84961060,0,0
84977712,0,0
84994352,0,0
85010996,0,0
85027632,0,0
85044272,0,0
85060912,0,0
85077544,0,0
85094184,0,0
85110832,0,0
85127472,0,0
85144112,0,0
85160744,0,0
85177388,0,0
85194032,0,0
85210672,0,1
85227304,0,0
85243952,0,0
85260592,0,0
85277224,0,0
85293872,1,0
85310512,0,0
85327160,0,0
85343780,0,0
85360424,0,0
85377076,0,0
85393712,0,0
85410344,0,0
85426984,0,0
85443628,0,0
85460272,0,0
85476908,1,0
85493548,1,0
85510196,1,0
85526832,0,0
85543464,0,0
85560104,0,0
85576748,0,0
85593392,0,0
85610024,0,0
85626668,0,0
85643312,0,0
85659952,0,0
85676592,0,0
85693224,0,0
85709872,0,0
85726508,0,0
85743144,0,0
85759788,0,0
85776428,0,0
85793076,0,0
85809708,0,1
85826352,0,0
85842992,0,0
85859632,0,0
85876264,0,0
85892904,0,0
85909552,0,0
85926196,0,0
85942828,0,0
85959472,0,1
85976112,0,1
85992752,0,0
86009384,0,0
86026024,0,0
86042672,0,0
86059312,0,0
86075948,1,0
86092596,0,0
86109244,0,0
86125872,0,0
86142504,0,0
86159144,0,0
86175796,0,0
86192432,0,0
86209064,0,0
86225716,0,0
86242352,0,0
86258988,0,0
86275632,0,1
86292264,0,0
86308912,0,0
86325552,0,0
86342192,0,0
86358824,0,0
86375472,0,0
86392112,0,0
86408748,0,0
86425396,0,0
86442032,0,0
86458672,0,0
86475304,0,0
86491944,0,0
86508592,0,0
86525232,0,0
86541864,0,0
86558500,0,0
86575148,0,0
86591796,0,0
86608436,0,0
86625064,0,0
86641712,0,0
86658348,0,0
86674984,0,0
86691636,0,0
86708272,0,0
86724916,0,0
86741548,0,0
86758180,0,0
86774832,0,0
86791472,0,0
86808116,0,0
86824752,0,0
86841400,0,0
86858032,0,0
86874664,0,0
86891304,0,0
86907952,0,0
86924592,0,0
86941232,0,0
86957864,0,0
86974508,0,0
86991148,0,0
87007784,0,0
87024424,0,0
87041068,0,0
87057708,0,0
87074340,0,0
87090980,0,0
87107636,0,0
87124272,0,0
87140912,0,0
87157544,0,0
87174192,0,0
87190832,0,0
87207460,0,0
87224104,0,0
87240752,0,0
87257396,0,0
87274028,0,0
87290664,0,0
87307312,0,0
87323956,1,0
87340584,1,0
87357228,0,0
87373884,0,1
87390516,0,0
87407156,0,0
87423792,0,0
87440432,0,0
87457076,0,0
87473712,0,0
87490344,0,0
87506988,0,0
87523632,0,0
87540264,0,0
87556912,0,0
87573552,0,0
87590188,0,0
87606824,0,0
87623464,0,0
87640112,0,0
87656752,0,0
87673384,1,0
87690032,0,0
87706672,0,0
87723316,0,0
87739952,0,0
87756588,0,0
87773228,0,0
87789872,0,0
87806504,0,0
87823144,0,0
87839796,0,0
87856428,0,0
87873060,0,0
87889704,0,0
87906352,0,0
87922992,0,0
87939632,0,0
87956260,0,0
87972912,0,0
87989552,0,0
88006184,0,0
88022824,0,0
88039476,0,0
88056112,0,0
88072740,0,0
88089384,0,0
88106032,0,0
88122676,0,0
88139316,0,0
88155940,0,0
88172588,0,0
88189232,0,0
88205864,0,0
88222500,0,0
88239152,0,0
88255792,0,0
88272424,0,0
88289064,0,0
88305712,0,0
88322352,0,0
88338984,0,0
88355624,1,0
88372272,0,0
88388916,0,1
88405556,0,0
88422192,0,0
88438832,0,0
88455472,0,0
88472112,0,0
88488744,0,0
88505388,0,0
88522028,0,0
88538660,0,0
88555300,0,0
88571952,0,0
88588596,0,0
88605232,0,0
88621868,0,0
88638512,0,0
88655148,0,0
88671784,1,0
88688424,0,0
88705076,0,0
88721712,0,0
88738344,0,0
88754988,0,0
88771636,0,0
88788272,0,0
88804904,0,0
88821552,0,0
88838192,0,0
88854832,0,0
88871464,0,0
88888104,0,0
88904752,0,0
88921392,0,0
88938028,0,0
88954660,0,0
88971312,0,0
88987952,0,0
89004584,0,0
89021232,0,0
89037868,0,0
89054512,0,0
89071152,0,0
89087784,0,0
89104432,0,0
89121072,0,0
89137704,0,0
89154344,0,0
89170992,0,0
89187628,0,0
89204264,0,0
89220904,0,0
89237560,0,0
89254192,0,0
89270824,0,0
89287468,0,0
89304112,0,0
89320748,0,0
89337384,0,0
89354020,0,0
89370676,0,0
89387320,0,0
89403952,0,1
89420592,0,1
89437228,0,0
89453868,0,0
89470504,0,0
89487152,0,0
89503800,0,1
89520432,0,1
89537064,0,0
89553704,0,0
89570348,0,0
89586996,0,0
89603624,0,0
89620264,0,0
89636912,0,0
89653552,0,0
89670184,0,0
89686832,0,0
89703484,1,0
89720120,0,0
89736748,0,1
89753384,0,0
89770032,0,0
89786672,0,0
89803304,0,0
89819948,0,0
89836588,0,0
89853232,0,0
89869864,0,0
89886508,0,0
89903152,0,0
89919788,0,0
89936424,0,0
89953072,0,0
89969712,1,0
89986348,0,0
90002984,0,0
90019620,0,0
90036272,0,0
90052912,0,0
90069548,0,0
90086184,0,0
90102832,0,0
90119476,0,0
90136112,0,0
90152744,0,0
90169392,0,0
90186032,0,0
90202668,0,0
90219316,0,0
90235952,0,0
90252592,0,0
90269224,0,0
90285872,0,0
90302512,0,0
90319156,0,0
90335796,1,0
90352428,1,0
90369072,0,0
90385712,0,0
90402340,0,0
90418988,0,0
90435636,1,0
90452268,0,0
90468908,0,0
90485544,0,0
90502192,0,0
90518832,0,0
90535460,0,0
90552104,0,0
90568752,0,0
90585388,0,0
90602024,0,0
90618664,0,0
90635308,0,0
90651952,0,0
90668584,0,0
90685232,0,0
90701876,0,0
90718512,0,0
90735144,0,0
90751784,0,0
90768432,0,0
90785072,0,0
90801704,0,0
90818344,0,0
90834992,0,0
90851632,0,0
90868268,1,0
90884912,0,1
90901556,0,4
90918200,0,1
90934836,4,1
90951464,0,0
90968120,25,0
90985804,1,1
91002436,0,1
91019064,16,0
91036764,64,1
91054432,121,9
91073160,361,4
91091868,256,9
91110592,0,25
91128268,36,25
91146992,361,16
91166756,64,100
91186520,64,81
91205240,256,16
91224984,36,0
91242672,196,9
91261388,256,1
91280124,1,49
91297792,9,484
91316524,9,144
91335232,4,961
91353952,4,3721
91373716,9,1681
91393476,16,49
91412196,4,64
91429876,100,4
91448596,361,1156
91470424,361,1936
91492264,49,196
91512044,25,324
91531804,400,400
91552588,196,121
91573392,49,625
91593152,64,729
91612912,49,361
91632680,121,4
91651392,81,81
91670104,49,9
91687800,0,49
91705480,25,36
91724196,9,361
91742904,49,64
91761624,121,784
91782444,81,289
91802192,121,2116
91824036,16,1849
91844844,9,529
91863556,1,4
91880196,9,16
91897880,9,100
91916592,16,1024
91937400,25,100
91957148,0,256
91975872,0,729
91994592,9,484
92013316,25,400
92033080,36,169
92052844,1,25
92070508,1,169
92089220,16,3136
92110032,81,2500
92130832,169,196
92151632,49,64
92170364,81,144
92190124,4,100
92208832,1,441
92227540,36,676
92247328,4,256
92266048,25,81
92284760,16,144
92304512,196,256
92325304,81,196
92345076,1,9
92361712,0,9
92378368,1,324
92397080,0,169
92415788,1,16
92433476,4,49
92451164,9,121
92469880,16,400
92489628,100,81
92509392,100,25
92529144,16,121
92548924,1,9
92565560,1,289
92584276,4,225
92602992,25,4
92620672,9,484
92639396,0,676
92658108,9,36
92675804,1,81
92693472,1,361
92712200,0,169
92730912,1,1369
92750664,289,3481
92772512,484,1764
92794348,16,441
92814124,1,9
92830756,4,9
92847396,16,361
92867144,36,169
92886908,1,81
92904596,49,121
92924364,9,1
92940992,0,121
92959700,0,100
92978440,0,4
92995084,0,9
93011720,0,9
93028348,1,36
93046044,0,9
93062688,0,0
93079320,0,1
93095960,16,121
93115724,25,576
93135464,16,196
93155228,4,49
93172924,1,144
93191644,1,1
93208276,1,36
93225952,49,0
93243636,25,121
93263408,1,784
93282120,4,9
93298768,9,169
93317480,0,0
93334116,25,0
93351784,4,196
93370512,25,225
93390272,0,49
93407940,0,900
93426660,1,400
93445400,25,324
93465148,64,1089
93485952,49,576
93505724,16,100
93525476,4,81
93543152,0,25
93560824,16,36
93579568,0,576
93598276,25,841
93618036,1,225
93636756,121,529
93657548,324,1764
93679396,144,144
93700204,0,9
93716840,0,16
93734520,4,1
93751148,16,2116
93771952,144,6241
93793796,169,900
93814596,9,4
93831244,16,169
93851000,0,121
93869716,1,16
93887388,4,25
93905080,0,49
93922752,9,144
93941476,16,625
93961236,36,361
93980996,1,49
93998676,0,100
94017396,1,144
94036132,25,1
94053804,100,49
94073544,0,36
94091224,0,36
94108916,0,169
94127636,100,36
94147396,64,289
94167172,1,676
94185884,0,225
94204592,0,9
94221236,1,196
94239968,0,196
94258676,25,64
94277392,9,529
94296120,1,1024
94315884,64,256
94335636,49,25
94354352,0,49
94372040,16,4
94389708,25,289
94409472,49,784
94429252,49,0
94446916,1,441
94465624,0,784
94484352,4,324
94503072,4,289
94521792,36,529
94541548,25,144
94561328,1,361
94580040,4,225
94598756,9,4
94615388,16,121
94635156,25,225
94654920,4,144
94673624,0,0
94690260,0,16
94707956,0,0
94724592,1,81
94742264,1,144
94761000,0,169
94779724,16,529
94799472,4,256
94818208,1,1
94834840,4,121
94853560,9,484
94872276,36,441
94892040,0,64
94909716,100,1
94928436,25,100
94948192,49,256
94967960,49,100
94987720,1,4
95004356,1,25
95022028,4,0
95038684,16,169
95058432,64,729
95078184,25,256
95097956,0,64
95115648,9,9
95132280,16,81
95150984,0,1
95167644,1,9
95184284,25,484
95204036,64,961
95223796,36,25
95242512,0,225
95261236,9,4
95277876,4,4
95294524,4,144
95313240,49,529
95332984,196,144
95353784,9,1
95370440,16,256
95390192,4,81
95407876,0,64
95425564,1,0
95442192,0,144
95460912,9,25
95478588,0,484
95497316,0,36
95515004,1,1
95531640,9,36
95549316,4,36
95567004,4,49
95584672,64,4
95602356,1,36
95620028,36,100
95639804,4,4
95656436,81,25
95675156,25,225
95694924,25,625
95714684,49,1089
95735472,25,841
95755228,9,16
95772916,1,121
95791636,4,49
95809312,0,1
95825964,0,9
95842608,9,9
95859236,36,289
95878984,36,2304
95899804,81,2809
95920600,25,1089
95941388,25,1296
95962192,225,2116
95984036,121,961
96004832,1,0
96021480,9,81
96039152,36,16
96057876,1,9
96074516,0,16
96092200,0,9
96108844,1,9
96125476,0,1
96142116,4,36
96159804,25,9
96177484,1,9
96194112,0,16
96211792,0,1
96228440,0,144
96247156,16,625
96266920,36,49
96285624,1,16
96303320,4,81
96320996,9,36
96338668,0,900
96357396,4,169
96376116,0,81
96393788,9,289
96412516,25,36
96431236,1,1
96447880,4,196
96466600,4,784
96485312,9,576
96504040,4,16
96521712,1,289
96540436,0,441
96559164,1,196
96577880,4,4
96594516,16,81
96613236,49,25
96631964,0,36
96649632,1,100
96668352,0,225
96687076,25,1089
96707884,169,1444
96729708,25,361
96749468,0,16
96767156,4,256
96785876,4,36
96803552,16,100
96823324,0,81
96840992,0,49
96858672,36,196
96878436,16,49
96897164,0,36
96914836,0,36
96932508,1,0
96949148,4,0
96965804,0,4
96982440,25,36
97001144,36,0
97018828,4,49
97036536,1,1
97053160,16,36
97071876,49,0
97089568,16,1
97107232,81,169
97126988,49,121
97146752,0,4
97163404,16,16
97182112,16,36
97200836,25,1
97218508,25,81
97237244,0,121
97255964,0,9
97272596,1,0
97289232,1,16
97306924,1,0
97323564,1,64
97341236,9,25
97358924,4,9
97375552,25,4
97393224,0,0
97409876,1,4
97426516,1,100
97445236,1,100
97463948,0,4
97480596,4,100
97499316,0,25
97516988,0,16
97534676,1,1
97551312,4,0
97567952,0,16
97585632,1,9
97602264,0,4
97618912,1,4
97635564,0,4
97652196,4,121
97670920,49,289
97690672,49,25
97709392,0,9
97726028,1,49
97743720,0,4
97760364,0,36
97778040,25,1
97795716,4,4
97812348,1,0
97829008,1,25
97846684,36,225
97866436,25,169
97886188,4,64
97903880,9,25
97921560,1,16
97939232,16,144
97959004,9,36
97976680,0,1
97993316,4,1
98009960,1,1
98026600,1,16
98044276,25,64
98062992,16,1
98080664,0,1
98097312,0,9
98113964,1,1
98130600,1,0
98147240,4,4
98163876,1,0
98180516,4,1
98197148,0,1
98213792,0,9
98230448,1,196
98249156,4,144
98267876,1,4
98284508,0,36
98302196,1,100
98320916,25,64
98339636,100,1
98358364,81,4
98376048,9,0
98392676,9,49
98410364,16,196
98430124,1,289
98448824,0,25
98466512,1,16
98484184,16,36
98502916,4,9
98519556,16,4
98537232,9,0
98553880,4,196
98572600,16,1681
98593384,100,961
98614188,16,0
98631868,16,225
98651632,4,2401
98671392,81,1024
98692192,9,121
98710928,4,9
98727548,81,256
98747300,64,0
98765004,25,144
98784744,64,9
98802444,0,81
98820124,36,144
98839880,81,4
98857564,0,1
98874196,4,121
98892924,9,289
98911644,4,81
98929316,0,121
98948036,0,16
98965720,25,900
98985476,36,625
99005232,0,144
99023952,16,1296
99044752,16,441
99064512,0,4
99081144,4,121
99099880,0,361
99118596,49,25
99137316,64,16
99156048,0,100
99174764,1,16
99192432,9,25
99210116,4,0
99226752,4,9
99243404,9,16
99261072,0,121
99279784,16,0
99297492,0,576
99316192,49,529
99335952,25,25
99354684,0,400
99373400,0,100
99392116,1,36
99409796,4,4
99426448,9,121
99445156,4,169
99463880,1,361
99482592,9,256
99501320,0,144
99520048,1,144
99538756,9,36
99556448,1,36
99574124,1,4
99590756,0,121
99609476,25,0
99627164,25,64
99645876,4,16
99663548,1,16
99681232,4,49
99698920,1,49
99716592,1,49
99734288,0,0
99750928,9,16
99768600,4,324
99787320,0,4
99803952,25,1156
99824764,36,900
99844516,4,64
99862184,4,441
99880904,100,1225
99902756,4,100
99921476,100,4
99940196,9,1
99956848,25,81
99975540,324,1024
99997388,100,2704
100019240,16,1089
100041080,25,121
100061876,0,144
100081624,0,81
100100368,16,4
100119092,16,25
100138828,4,784
100158600,25,1225
100180424,0,1
100198120,324,1
100217872,256,784
100239716,1,2500
100260504,4,1444
100281316,1,9
100299004,4,225
100318756,4,484
100338512,1,1296
100359316,9,900
100379080,1,64
100397800,0,9
100415476,1,169
100435236,196,1
100455008,576,361
100476824,225,256
100498684,100,36
100519480,1,1
100537156,49,49
100556912,144,169
100578744,36,16
100598520,64,1296
100620348,25,3844
100642192,121,2704
100665072,49,64
100684840,25,529
100705636,36,196
100726432,0,1369
100747220,0,81
100765960,4,81
100784684,36,81
100804428,25,100
100825236,1,64
100843948,4,49
100862684,9,4
100880344,121,1296
100903236,529,1521
100926112,256,121
100947952,1,144
100967724,9,9
100985408,4,400
101005160,4,196
101024912,0,64
101043624,9,100
101063388,25,100
101084200,100,576
101106040,4,361
101125796,9,9
101143480,9,0
101161160,49,16
101180904,9,9
101198588,36,784
101219400,49,100
101240204,25,81
101259960,1,484
101279712,0,25
101298436,36,144
101319228,0,256
101338996,4,36
101357724,4,9
101375392,324,4
101395156,576,4
101414920,16,36
101434688,49,16
101454428,16,9
101473156,289,4
101492912,225,1
101512676,0,1
101530356,81,9
101549080,4,16
101567796,9,9
101585476,64,4
101604196,1,1
101621880,64,1
101640612,1,25
101659312,169,36
101680104,100,9
101699884,4,1
101717560,1,1
101735244,0,1
101752924,81,0
101771644,36,4
101790348,4,0
101808024,16,0
101826764,144,4
101846512,225,25
101867300,81,0
101886036,16,9
101904752,0,0
101922428,25,0
101941152,4,0
101958832,9,9
101976516,16,16
101996276,1,4
102013984,1,1
102031632,9,0
102049312,4,0
102067000,169,0
102086768,289,1
102106520,36,0
102125240,16,16
102144992,36,4
102163720,1,1
102181404,1,4
102199068,9,4
102216764,9,0
102234444,16,1
102253160,16,1
102271872,49,0
102290604,25,1
102309308,64,0
102328032,100,9
102347808,256,0
102367564,64,1
102386272,4,16
102404980,0,0
102422672,36,0
102441396,144,0
102461144,64,4
102479868,0,9
102497560,0,1
102515252,0,1
102532916,0,9
102550600,25,0
102569320,1,0
102586992,9,4
102604664,16,0
102623400,49,1
102642120,4,1
102659796,1,1
102677468,9,0
102695156,9,0
102712832,16,0
102731556,81,0
102750284,36,1
102768992,0,9
102786676,0,0
102804364,0,4
102822048,36,0
102840756,169,0
102860516,81,4
102879224,25,1
102897952,25,1
102916664,64,1
102935384,121,1
102955156,64,0
102973872,0,9
102991544,25,4
103010272,9,1
103027960,0,0
103045636,16,1
103064360,0,0
103082044,25,1
103100760,49,1
103119464,0,0
103137164,121,1
103156920,64,0
103175636,9,1
103193316,1,1
103210992,1,0
103228684,9,1
103246364,1,1
103264032,25,0
103282752,0,0
103300440,4,1
103318108,0,1
103335788,16,16
103355556,49,0
103374276,0,1
103391960,9,1
103409620,0,0
103427324,0,0
103444980,0,0
103462668,1,0
103480372,196,1
103500128,361,1
103519888,144,9
103539620,121,16
103560436,144,1
103580204,196,1
103599956,64,1
103618680,25,0
103637392,25,0
103656120,100,1
103675876,144,0
103695636,0,1
103713312,0,1
103730996,16,1
103749728,1,0
103767408,64,1
103786108,49,4
103804832,0,1
103822516,81,0
103841236,49,1
103859952,4,1
103877628,0,1
103895316,1,0
103912996,0,0
103930668,1,0
103948356,49,1
103967084,36,9
103985796,36,9
104004512,144,1
104024276,25,1
104042992,0,1
104060676,0,0
104078356,100,0
104098120,144,4
104117868,0,9
104135552,81,1
104154284,49,4
104172996,4,4
104190676,1,0
104208348,121,0
104228112,361,0
104247876,16,9
104266596,0,9
104284284,0,4
104301952,16,25
104321712,49,4
104340424,81,4
104359156,100,1
104378924,81,1
104397636,9,16
104416360,1,9
104434032,16,4
104452756,36,25
104472512,49,16
104492284,0,16
104511000,49,4
104529716,81,4
104548444,4,1
104566120,0,0
104583800,9,0
104601480,0,1
104619164,36,1
104637864,100,1
104657640,9,9
104675308,16,4
104694032,25,0
104712756,1,0
104730428,64,0
104749152,324,0
104768920,169,9
104788676,4,25
104807392,0,0
104825084,9,0
104842756,49,1
104861476,16,0
104880204,100,4
104899964,196,4
104919716,9,16
104938428,4,0
104956128,25,0
104974844,144,1
104994596,169,1
105014364,9,25
105033092,16,1
105051796,25,0
105070516,1,1
105088208,0,0
105105884,49,1
105124588,4,0
105142256,64,0
105160992,36,0
105179716,0,9
105197396,0,1
105215084,4,0
105232756,64,0
105251468,64,0
105270188,25,4
105288916,100,0
105308684,121,0
105328424,0,9
105346112,16,0
105364844,1,9
105382504,16,0
105401232,25,1
105419960,0,0
105437636,4,1
105455320,36,1
105474032,4,1
105491724,64,1
105510448,100,0
105530192,1,1
105547876,0,0
105565556,9,1
105583236,4,0
105600916,4,1
105618596,0,0
105636280,9,0
105653960,4,1
105671628,4,0
105689324,4,9
105706996,16,0
105725716,36,0
105744436,16,0
105763152,0,0
105780832,81,1
105799552,25,1
105818272,4,1
105835948,0,0
105853636,9,1
105871312,0,0
105888992,81,0
105907708,361,0
105927472,529,9
105947244,361,25
105968036,25,25
105987796,81,4
106006500,64,0
106025248,25,1
106043956,121,0
106063716,1,4
106081396,121,4
106101156,0,0
106118832,64,0
106137552,9,4
106155232,0,1
106172908,25,1
106191632,1,0
106209316,121,4
106229076,121,0
106248836,16,16
106268588,4,0
106286284,9,1
106303952,144,0
106323712,81,9
106342432,16,16
106362192,4,0
106379868,25,0
106398588,49,0
106417328,529,0
106437080,784,4
106456844,225,36
106477644,4,25
106496364,36,1
106515080,100,0
106534824,100,9
106554596,144,1
106574364,81,4
106593076,1,9
106610760,1,0
106628440,49,0
106647152,100,0
106666908,1,4
106684596,1,9
106702280,16,0
106720992,49,0
106739716,196,4
106759488,16,1
106778196,100,1
106797948,4,0
106815644,144,1
106835388,16,4
106854116,16,4
106872828,9,0
106890528,1,9
106908204,36,1
106926908,1,0
106944608,4,0
106962288,0,1
106979952,16,9
106998672,16,0
107017392,0,0
107035076,9,1
107052760,36,0
107071472,1,1
107089152,0,0
107106832,0,0
107124504,25,0
107143244,121,1
107163008,25,4
107181728,64,1
107200432,49,1
107219164,25,1
107237872,36,0
107256600,9,1
107274280,121,0
107294040,49,1
107312756,9,1
107330432,9,4
107348108,4,1
107365792,0,0
107383484,4,1
107401148,9,0
107418832,0,1
107436516,16,0
107455232,25,0
107473952,0,1
107491644,100,4
107511384,324,0
107531152,289,4
107550916,81,16
107570672,0,9
107588344,1,1
107606032,16,0
107624752,400,0
107644516,676,9
107664264,64,25
107684032,25,16
107703784,0,0
107721476,36,1
107740200,0,1
107757884,1,1
107775564,225,0
107795316,529,1
107815080,4,25
107833800,0,16
107852512,16,1
107871228,16,4
107889964,121,9
107909708,81,0
107928424,0,4
107946124,1,1
107963804,4,9
107981476,1,0
107999148,25,1
108017884,4,1
108035568,64,1
108054276,121,4
108074036,36,4
108092756,4,1
108110428,1,4
108128104,0,4
108145808,1,1
108163484,9,0
108181148,1,0
108198820,25,0
108217556,16,0
108236280,1,9
108253956,4,1
108271640,64,0
108290352,0,4
108308032,25,4
108326756,1,4
108344440,36,1
108363160,4,4
108380832,36,0
108399548,16,4
108418288,4,1
108435956,1,1
108453636,64,1
108472352,9,1
108490044,144,1
108509792,144,4
108529552,1,16
108548276,1,0
108565944,0,0
108583636,0,1
108601308,36,4
108620036,64,0
108638764,49,25
108658516,4,4
108676204,81,1
108694920,81,0
108713632,64,0
108732340,9,4
108750032,81,0
108768752,25,9
108787472,4,1
108805164,36,0
108823888,81,1
108842596,0,1
108860284,1,0
108877952,289,0
108897712,441,1
108917476,100,16
108938284,36,16
108958048,16,9
108976748,1,4
108994436,9,0
109012128,4,1
109029800,36,1
109048512,36,1
109067228,0,9
109084912,1,0
109102584,1,0
109120276,1,1
109137968,36,1
109156676,81,4
109175384,324,0
109195156,4,9
109212844,64,1
109231556,25,4
109250280,9,0
109267952,9,0
109285640,1,0
109303324,0,1
109320988,0,0
109338676,4,0
109356352,144,0
109376116,196,0
109395868,0,1
109413556,49,4
109432272,64,1
109450996,49,0
109469716,1,0
109487396,36,4
109506120,576,0
109525876,625,16
109546676,100,49
109567476,49,16
109587240,1,1
109604928,4,4
109622604,16,4
109641312,16,4
109660036,1,0
109677720,16,1
109696432,0,4
109714116,144,0
109733868,81,1
109752604,4,1
109770280,49,0
109788984,324,0
109808760,36,4
109827472,9,16
109846196,49,1
109864908,9,1
109882596,16,9
109901304,16,0
109920032,9,1
109937720,16,4
109956436,0,0
109974116,4,0
109991784,0,0
110009476,0,0
110027156,1,0
110044832,0,0
110062508,16,0
110081244,9,4
110098912,9,1
110116596,16,0
110135320,9,0
110153004,25,4
110171716,9,1
110189396,1,0
110207072,25,0
110225792,25,0
110244512,36,1
110263228,64,4
110281964,1,1
110299636,4,0
110317324,225,0
110337088,256,1
110356844,9,9
110374516,49,1
110393240,16,9
110411956,100,0
110431716,16,9
110450436,4,0
110468124,49,0
110486848,256,4
110506588,36,4
110525320,1,1
110543000,1,0
110560676,196,0
110580432,484,0
110600188,169,9
110619956,25,25
110639716,1,1
110657384,64,1
110676124,121,1
110695876,81,4
110714592,4,1
110732268,324,0
110752040,49,9
110770760,9,16
110789472,25,1
110808200,36,1
110826924,9,4
110844596,25,0
110863308,16,0
110882048,9,16
110900764,36,4
110919472,121,0
110939232,25,4
110957952,81,4
110976676,256,4
110996424,49,4
111015160,100,0
111034920,361,0
111054680,49,4
111073396,25,16
111093156,49,0
111111868,196,0
111131628,9,9
111149320,64,1
111168044,49,1
111186752,16,0
111205480,256,1
111225240,100,1
111245000,64,16
111264752,16,1
111283480,441,4
111303236,25,16
111322996,9,9
111340688,1,9
111358364,36,1
111377076,64,4
111395788,361,9
111415560,169,4
111435316,625,9
111455076,2116,36
111476928,900,196
111498744,676,169
111520588,64,25
111540356,529,9
111560120,121,4
111579872,49,49
111599648,121,9
111619396,841,9
111639152,0,0
111656820,1225,9
111677632,16,36
111697384,1764,169
111720272,100,49
111741064,4356,49
111762904,10000,225
111786832,3600,729
111809708,1156,441
111832600,2116,144
111855464,1521,81
111877300,3969,64
111899156,6561,64
111920972,3600,529
111943872,6724,576
111966760,3249,256
111989624,6561,361
112012508,11236,324
112036416,1089,676
112059296,9,961
112079068,3969,100
112101952,22801,4
112123780,16641,484
112147704,7744,1296
112171620,7744,576
112194492,400,400
112216356,1,400
112236108,961,16
112256904,5329,49
112278764,1156,81
112300576,16,361
112321388,784,25
112342196,324,16
112362984,529,4
112382752,1681,64
112404592,10404,25
112427464,1600,529
112450344,1849,676
112473228,81,0
112491936,12769,100
112515864,17161,16
112538736,15625,1225
112563700,7056,441
112586580,784,324
112608436,289,625
112630272,1849,9
112651052,36,169
112671872,4096,0
112692672,27889,16
112715540,20449,1600
112740512,2401,2304
112764436,841,169
112786272,81,16
112806044,1296,25
112827864,1,1
112845552,2809,1
112866352,1600,25
112888196,81,361
112908988,784,81
112929788,3249,36
112951628,625,196
112973460,17161,196
112997396,0,169
113017144,9216,1849
113041072,49,529
113061844,15129,49
113084756,11449,169
113108680,4,900
113128424,5329,441
113151300,0,25
113170016,0,1600
113190816,17956,3025
113215788,121,729
113237628,256,324
113259456,4225,100
113282356,10404,100
113306260,22500,0
113328084,11881,1156
113353076,2025,196
113375932,0,64
113394660,7225,1225
113418588,9409,3025
113442500,9604,9
113463312,4489,529
113486184,2401,0
113506976,961,324
113528824,10609,225
113552736,15376,900
113576660,6400,900
113599532,2025,100
113622424,8836,289
113645316,5184,729
113668188,1296,361
113691064,1681,144
113713944,729,225
113735800,9604,4
113756584,49,676
113777372,14400,100
113801300,12544,841
113825228,1,900
113844972,15129,121
113868912,16900,25
113891788,4225,1225
113915704,11193,361
113939628,26273,2916
113964576,30976,6241
113989544,324,1681
114012436,1936,256
114035308,4225,0
114056088,3969,1
114076904,1024,169
114099780,225,49
114120584,625,36
114141392,529,36
114162188,1225,36
114184028,2304,36
114205876,12544,121
114229792,29584,576
114253700,3249,1369
114277632,4489,841
114300500,25921,0
114322332,7056,1089
114346264,784,2025
114369136,576,36
114389936,1681,100
114412828,4,196
114432584,225,0
114452332,11881,169
114476260,18225,361
114500192,49,1521
114522020,81,1
114540752,25,16
114560492,4624,529
114583384,21609,121
114607300,0,2116
114628112,13456,1089
114653056,1521,1764
114676980,1296,529
114699868,1369,289
114722744,2704,25
114744600,5625,225
114767480,7396,16
114789300,81,121
114810104,900,361
114831952,6241,1
114852740,2916,361
114875616,21316,784
114899548,8649,576
114922420,144,1024
114945320,1296,4
114966108,225,25
114986900,7744,49
115008744,24025,144
115032660,19600,1089
115057612,7569,2500
115081556,2025,625
115104428,100,64
115125224,4,289
115144992,625,4
115164740,6724,64
115186584,7921,256
115209472,361,729
115231312,9,1
115248980,676,16
115269804,625,121
115291624,1849,16
115313460,15376,16
115336348,16900,1444
115361320,169,1936
115384184,5776,144
115407068,5041,49
115428908,900,25
115449716,784,256
115471556,729,324
115493392,256,4
115513156,225,9
115532916,25,25
115552680,16,16
115572440,484,49
115593236,3136,4
115614036,729,100
115635868,1089,36
115657700,4356,49
115679544,11664,256
115703452,1681,441
115726344,2401,400
115749224,961,49
115770020,9,400
115789776,7396,1
115810592,4489,144
115833464,784,361
115855300,81,81
115875072,2601,64
115896896,9025,64
115918736,7921,361
115941640,2500,841
115964512,2704,361
115987388,0,169
116007164,784,4
116026924,100,81
116047692,7921,121
116070588,28561,25
116093476,2809,1024
116117380,16,1936
116139236,49,4
116157944,441,0
116177712,64,121
116198508,324,81
116219292,13225,0
116241136,17161,16
116264032,7921,841
116286904,17689,1225
116311848,6241,484
116334748,4,900
116354504,676,169
116376332,1521,36
116398176,225,144
116420020,1681,121
116442908,144,196
116464744,2704,196
116487632,225,36
116508424,1936,9
116529248,6724,49
116551072,1089,441
116573944,225,256
116595792,16,121
116616596,625,25
116637392,1849,64
116659240,729,16
116680032,3025,121
116702908,0,36
116721624,64,169
116742444,625,4
116762188,0,1
116779864,10201,49
116802732,0,169
116822504,0,2401
116843304,961,3364
116866176,6561,529
116889064,23716,16
116911936,19881,169
116935884,2500,1156
116959788,900,625
116981632,4624,4
117002420,11236,144
117026340,8281,961
117049224,144,529
117071084,5329,64
117092904,24025,169
117116820,2025,1089
117140756,1296,841
117163640,4489,36
117185456,1089,16
117207316,900,81
117228104,81,196
117248900,256,49
117269708,1225,16
117291560,2916,1
117312344,4489,121
117335232,121,289
117357080,100,100
117378916,0,4
117396580,4489,1
117417380,11236,36
117440284,841,841
117462112,64,256
117482920,4489,64
117504748,6241,169
117527632,1521,625
117550496,361,9
117570252,529,36
117591048,4900,289
117613940,11449,64
117636824,2500,1156
117660748,8649,9
117681552,225,784
117703368,6241,16
117725220,6724,225
117748108,81,4
117766824,16,400
117787620,3481,64
117809472,4,49
117828192,225,0
117847952,49,16
117867712,324,16
117888512,1444,9
117909300,7744,0
117930120,1521,441
117952984,144,361
117974832,196,0
117994596,144,36
118015400,0,144
118035156,169,4
118054904,25,0
118073648,9,9
118091308,169,0
118111060,225,64
118131876,625,25
118152660,16,36
118172420,16,49
118192200,2401,169
118215068,21316,4
118236904,1028,841
118259780,0,2304
118280588,9801,3844
118304496,289,1764
118327396,361,100
118349228,2025,0
118370032,1024,144
118392920,625,9
118412668,289,625
118434504,16,64
118454268,64,36
118474048,2116,49
118495864,2116,0
118516672,1600,81
118538512,900,121
118560356,36,100
118581160,529,81
118601952,784,4
118621716,4,36
118640424,49,25
118660204,121,9
118679964,576,36
118700740,1156,4
118721552,1024,16
118743396,625,49
118764192,25,25
118783940,64,25
118803724,36,16
118823472,0,0
118841152,361,9
118860924,441,1
118880680,100,36
118901484,1,0
118919148,9,1
118936836,484,9
118956604,841,0
118976352,784,25
118997160,36,9
119015876,1024,1
119036672,36,25
119056436,0,64
119075172,4,1
119092840,81,1
119111556,289,1
119131328,49,16
119151080,49,1
119169784,49,16
119189556,81,9
119208276,576,0
119228036,256,16
119248816,441,64
119269644,1225,16
119291476,961,4
119311232,81,25
119331004,16,4
119349716,9,1
119367404,0,4
119385080,100,1
119404832,16,0
119423548,144,0
119443304,3600,1
119464108,4624,64
119485944,784,289
119507792,169,121
119529636,144,4
119549396,289,25
119570188,1089,16
119592044,529,4
119611808,1,64
119630512,400,25
119651312,961,1
119671080,100,36
119691868,625,49
119712668,121,36
119733480,1,9
119751148,529,9
119770904,3249,4
119791716,2809,121
119814580,100,289
119836428,3136,4
119857232,7396,144
119880100,5625,169
119902976,5476,289
119925864,1521,484
119948740,324,196
119970588,81,4
119989308,484,36
120010108,64,9
120028832,1,81
120047544,324,0
120067316,361,16
120088112,4,64
120106816,1681,49
120128668,7569,16
120150508,2304,400
120173400,1,324
120193168,121,36
120213952,256,1
120233708,1444,64
120255556,144,1
120275316,16,9
120294028,0,25
120312740,16,4
120331476,256,25
120352264,324,0
120372032,841,0
120391796,49,4
120410524,256,25
120431308,81,25
120451060,1369,9
120471868,2209,49
120493704,2601,144
120516588,576,81
120537388,4225,81
120559224,13456,100
120583144,4489,484
120606048,484,484
120627872,1,16
120646580,729,1
120666360,324,9
120686124,25,289
120706908,0,16
120725640,225,25
120746432,36,16
120766192,16,25
120785960,121,25
120806760,25,9
120825472,2209,4
120846260,1521,4
120867080,144,49
120887872,0,25
120906588,361,0
120926360,0,25
120945072,289,25
120965876,49,0
120984584,1024,4
121005392,2116,49
121027220,121,81
121048024,4356,16
121069864,2809,144
121092744,625,289
121114576,16641,4
121136436,8836,441
121159304,576,961
121181144,16,169
121201960,625,9
121221700,289,49
121242504,19881,25
121265384,13225,400
121289308,144,1156
121312188,576,144
121334040,144,1
121353788,144,1
121373540,400,49
121394352,900,16
121415136,13225,64
121438032,1296,144
121460924,361,400
121482752,400,9
121502516,441,1
121522276,36,0
121540996,1,121
121560752,25,9
121579472,36,16
121599236,1444,49
121621056,7396,0
121641884,729,289
121663724,100,169
121685556,169,16
121706360,289,16
121727160,64,64
121746916,64,25
121766676,576,9
121786436,529,144
121808272,49,4
121826996,4,4
121844660,9,81
121863404,0,1
121881084,441,49
121901876,1024,64
121923708,1521,169
121946588,1156,25
121968428,400,81
121989248,225,144
122011092,256,1
122030832,529,9
122050584,2601,1
122071388,6241,25
122093224,784,256
122115068,100,169
122136912,64,4
122155628,9,49
122174356,144,9
122194116,144,25
122214920,0,4
122232584,0,1
122250284,81,4
122268992,49,9
122287708,49,0
122306432,121,0
122326216,169,0
122345960,729,0
122365712,36,9
122384440,100,9
122404200,49,4
122422912,49,1
122441628,625,1
122461392,121,4
122481156,25,9
122499864,16,1
122518592,0,1
122536284,1,0
122553948,16,0
122572668,4,1
122590352,9,0
122608036,4,0
122625704,64,1
122644416,81,0
122663160,16,4
122681872,16,4
122700596,16,0
122719316,9,0
122736996,81,0
122755716,49,1
122774428,100,1
122794212,4,1
122811872,144,4
122831636,9,1
122849320,289,9
122869072,144,9
122888828,16,4
122907548,9,0
122925232,36,1
122943944,49,0
122962672,25,9
122981396,16,4
123000120,100,0
123019864,676,1
123039632,256,9
123059400,1,36
123078116,196,0
123097872,144,4
123117640,1,1
123135324,0,4
123152996,36,4
123171720,196,0
123191484,81,1
123210200,1,9
123227868,16,1
123246580,169,0
123266364,169,0
123286116,25,9
123304828,0,4
123322516,1,0
123340196,0,0
123357888,0,1
123375552,4,0
123393240,16,0
123411968,36,1
123430672,49,0
123449400,100,0
123469164,144,1
123488916,0,4
123506588,49,1
123525320,25,1
123544036,0,1
123561724,64,1
123580432,81,0
123599152,25,4
123617872,16,4
123636596,25,0
123655324,36,1
123674036,49,4
123692752,25,0
123711468,9,1
123729156,64,0
123747880,25,4
123766604,25,1
123785324,4,0
123802996,9,0
123820676,36,0
123839388,0,1
123857076,1,4
123874744,49,0
123893480,16,0
123912188,25,4
123930920,169,0
123950676,100,1
123970436,64,9
123989160,169,0
124008912,49,4
124027636,36,16
124047400,100,1
124067164,16,4
124085876,4,0
124103556,16,0
124122280,0,1
124139956,4,0
124157632,25,0
124176348,9,1
124194044,0,0
124211716,25,1
124230428,36,0
124249156,1,0
124266836,9,0
124284516,100,0
124304272,81,4
124322992,36,9
124341720,0,1
124359384,36,0
124378104,25,0
124396836,0,9
124414512,16,1
124433236,100,0
124453000,64,1
124471732,1,4
124489388,0,1
124507064,1,0
124524760,4,0
124542440,64,0
124561152,1,4
124578848,49,4
124597556,64,0
124616276,81,0
124635000,36,0
124653720,144,1
124673468,1,9
124691144,0,9
124708824,4,4
124726524,49,0
124745244,256,0
124764996,49,0
124783716,1,4
124801392,1,1
124819068,625,0
124838828,1521,9
124859632,324,81
124880424,16,36
124900192,49,0
124918928,4,4
124936600,1,4
124954276,0,4
124971940,144,0
124991720,144,0
125011476,121,25
125032280,196,9
125052048,36,1
125070752,676,9
125090516,144,9
125110276,36,25
125130040,121,1
125149800,225,1
125169560,256,0
125189328,121,25
125210108,25,25
125229868,49,0
125248596,36,0
125267324,25,0
125286028,25,0
125304748,1,1
125322436,36,0
125341156,100,1
125360916,81,9
125379632,36,4
125398356,9,1
125416032,64,0
125434752,0,4
125452444,9,4
125470120,169,1
125489872,484,1
125509616,484,25
125530440,324,16
125551244,9,9
125568924,25,25
125588672,529,1
125608436,121,9
125628192,36,49
125647952,49,0
125666676,9,1
125684352,16,1
125703068,81,0
125721800,49,0
125740516,1,9
125758196,0,4
125775868,25,0
125794604,81,0
125813312,0,9
125830996,1,1
125848676,0,0
125866356,4,0
125884028,0,0
125901720,16,0
125920440,25,0
125939148,64,0
125957872,36,1
125976600,121,4
125996364,25,1
126015080,1,4
126032760,1,0
126050436,25,0
126069164,4,1
126086840,49,4
126105548,64,0
126124280,0,4
126141968,169,1
126161720,361,9
126181476,49,9
126200192,0,9
126217876,1,1
126235544,25,0
126254284,0,1
126271960,25,0
126290680,1,1
126308340,324,0
126328128,225,4
126347872,169,9
126367636,49,0
126386368,4,4
126404032,1,4
126421708,36,1
126440424,169,0
126460192,81,4
126478908,0,1
126496604,25,0
126515324,1,0
126532996,1,0
126550668,9,0
126568348,64,0
126587076,289,1
126606832,196,4
126626596,64,16
126646356,16,4
126665084,64,0
126683796,64,0
126702504,1,16
126721240,1,1
126738908,49,1
126757636,1,0
126775316,121,1
126795088,196,0
126814836,64,4
126833552,0,4
126851232,16,0
126869948,4,0
126887636,9,0
126905304,9,0
126923000,1,0
126940676,64,0
126959384,49,0
126978124,9,1
126995800,81,0
127014512,196,4
127034268,361,1
127054040,81,9
127072748,36,16
127092508,81,0
127111252,225,1
127131000,625,9
127150752,361,9
127170508,36,25
127190284,4,4
127207964,0,0
127225628,9,0
127243316,1,0
127261008,9,1
127278676,81,1
127297388,0,4
127315088,121,0
127334832,81,4
127353556,1,1
127371220,0,0
127388916,64,1
127407644,4,4
127425316,9,1
127442996,0,1
127460676,1,0
127478344,36,0
127497076,100,0
127516840,25,4
127535552,0,4
127553232,9,1
127570916,25,1
127589648,121,1
127609400,64,4
127628112,169,4
127647880,49,1
127666592,49,9
127685312,196,1
127705060,81,9
127723792,16,16
127743548,64,0
127762280,64,0
127781000,25,0
127799720,9,0
127817396,1,1
127835060,4,0
127852752,324,0
127872520,1296,0
127893316,289,36
127914120,4,49
127932840,1,0
127950512,4,0
127968184,49,1
127986916,16,9
128005632,1,4
128023316,1,1
128041012,100,0
128060764,625,9
128080512,49,9
128099228,100,16
128120040,9,0
128137712,100,1
128157476,256,1
128177232,121,9
128197004,81,9
128215716,4,4
128233384,25,4
128252124,100,0
128271876,16,9
128290588,36,1
128309312,49,0
128328032,169,1
128347796,196,1
128367552,4,4
128385232,196,1
128404996,144,16
128425796,4,4
128443476,0,0
128461160,36,1
128479872,0,1
128497556,144,0
128517320,49,1
128536044,4,4
128553716,121,0
128573480,729,9
128593244,324,25
128614032,49,36
128633788,100,1
128653564,81,1
128672280,49,9
128691000,4,1
128708676,16,0
128727392,25,0
128746116,81,0
128764824,144,0
128784596,289,0
128804344,256,16
128825148,9,36
128843884,81,4
128862604,25,1
128881316,441,1
128901072,1296,1
128921880,256,36
128942668,16,49
128962432,49,0
128981164,49,1
128999880,49,4
129018600,0,0
129036260,49,0
129055004,100,1
129074760,0,4
129092436,4,1
129110128,9,0
129127808,1,1
129145476,49,0
129164188,36,1
129182924,4,16
129201636,9,0
129219316,0,4
129236988,0,1
129254688,1,1
129272364,49,1
129291072,0,4
129308756,4,9
129326448,36,1
129345156,9,0
129362828,100,0
129382596,16,0
129401308,0,1
129419000,9,0
129436668,64,0
129455404,196,0
129475152,49,4
129493876,36,9
129512600,441,1
129532352,169,9
129552112,4,16
129570840,4,1
129588512,25,0
129607236,225,0
129626996,225,9
129646760,100,9
129666524,4,1
129684204,9,1
129701868,0,0
129719556,36,1
129738280,121,1
129758040,4,4
129775712,144,9
129795484,225,1
129815236,4,16
129833948,0,4
129851632,16,0
129870364,16,4
129889072,9,1
129906752,16,0
129925480,16,1
129944196,25,4
129962912,36,0
129981644,0,1
129999312,4,1
130016988,9,0
130034664,25,1
130053408,100,1
130073156,144,4
130092916,16,1
130111636,16,1
130130348,441,0
130150112,441,4
130169880,0,36
130188596,4,4
130206284,1,1
130223960,16,1
130242684,169,0
130262440,441,1
130282196,100,36
130303012,256,16
130323808,225,0
130343560,4,36
130362272,1,9
130379956,9,9
130397624,100,0
130417404,16,0
130436124,0,16
130454848,0,1
130472504,64,4
130491236,169,0
130511000,36,1
130529708,16,16
130549464,81,0
130568188,144,9
130587968,49,4
130606676,9,9
130624356,100,9
130644120,64,1
130662832,0,1
130680516,25,1
130699224,16,1
130717956,1,1
130735644,0,0
130753312,81,1
130772044,25,1
130790760,0,4
130808440,1,0
130826116,36,0
130844844,361,1
130864584,81,9
130883312,4,16
130902048,1,1
130919716,4,0
130937388,1,1
130955076,4,1
130972764,4,0
130990444,9,1
131008116,4,0
131025792,0,0
131043476,36,1
131062196,169,1
131081956,169,9
131101716,16,16
131121480,1,4
131139144,36,0
131157876,4,0
131175564,225,0
131195304,81,4
131214024,16,25
131233780,25,0
131252524,1,4
131270192,81,0
131288920,121,1
131308680,64,1
131327396,0,9
131345080,256,1
131364828,256,4
131384612,0,9
131402280,9,0
131419948,0,0
131437636,9,1
131455312,0,0
131472988,16,0
131491720,1,1
131509396,1,0
131527076,16,1
131545796,25,0
131564508,9,0
131582196,9,0
131599880,1,0
131617556,1,0
131635232,4,0
131652916,4,1
131670584,4,1
131688264,1,0
131705952,1,0
131723640,121,0
131743396,400,1
131763152,4,16
131781880,361,4
131801648,49,4
131820348,36,9
131839080,400,9
131858836,1681,0
131879624,441,100
131901476,4,49
131920196,16,0
131938916,9,9
131956596,0,1
131974272,25,4
131992996,9,1
132010676,1,0
132028348,1,4
132046032,1,0
132063716,1,0
132081384,1,0
132099068,1,0
132116760,0,1
132134436,0,0
132152116,0,1
132169796,1,0
132187488,0,0
132205148,0,0
132222828,0,0
132240508,0,0
132258192,0,0
132275864,0,0
132293540,1,0
132311228,0,0
132328900,0,0
132346592,0,0
132364260,0,0
132381956,0,0
132399640,0,0
132417312,0,1
132434996,0,0
132452672,0,0
132470340,0,0
132488020,0,0
132505712,0,0
132523392,0,0
132541064,1,0
132558748,1,0
132576432,0,0
132594104,0,0
132611784,0,0
132629472,1,0
132647148,0,0
132664820,0,0
132682500,0,0
132700196,1,0
132717884,1,0
132735556,0,0
132753236,0,1
132770916,1,1
132788592,1,0
132806272,0,0
132823940,0,0
132841632,0,0
132859304,0,0
132876988,0,0
132894668,0,0
132912352,0,0
132930036,0,0
132947712,0,0
132965392,0,0
132983072,0,0
133000744,1,0
133018436,0,0
133036116,1,0
133053792,0,0
133071472,0,1
133089152,0,1
133106828,0,0
133124512,0,0
133142184,0,0
133159860,0,0
133177552,0,0
133195224,0,0
133212908,0,0
133230584,0,0
133248272,0,0
133265960,0,0
133283624,0,0
133301312,0,0
133318992,0,0
133336672,0,0
133354352,0,0
133372028,0,0
133389712,0,1
133407380,0,0
133425064,0,0
133442748,0,0
133460420,0,0
133478104,0,0
133495780,0,0
133513480,0,0
133531152,0,0
133548828,1,0
133566516,0,0
133584188,0,0
133601864,1,0
133619544,0,0
133637240,1,0
133654916,1,0
133672588,1,0
133690264,0,0
133707952,0,0
133725624,0,0
133743300,0,0
133760976,0,0
133778676,1,0
133796352,0,1
133814028,0,0
133831724,0,0
133849400,0,1
133867064,0,0
133884744,0,0
133902428,0,0
133920112,0,0
133937792,0,0
133955464,0,0
133973152,0,0
133990828,0,0
134008516,0,0
134026188,0,0
134043872,0,0
134061540,0,0
134079224,0,0
134096916,0,0
134114588,0,0
134132264,0,0
134149944,0,0
134167644,1,0
134185316,0,0
134202980,0,0
134220660,0,0
134238352,0,0
134256036,0,0
134273712,0,0
134291388,0,0
134309072,0,0
134326744,0,0
134344420,0,0
134362096,0,0
134379792,0,0
134397472,0,0
134415140,0,0
134432832,0,0
134450512,0,0
134468184,0,0
134485860,0,0
134503548,0,0
134521228,0,0
134538904,0,0
134556576,0,0
134574272,0,0
134591956,0,1
134609632,0,0
134627296,0,0
134644996,0,0
134662680,0,0
134680344,0,0
134698032,1,0
134715712,1,0
134733388,0,0
134751072,0,0
134768748,0,0
134786432,0,0
134804104,0,0
134821784,0,0
134839468,0,0
134857144,0,0
134874824,0,0
134892496,0,0
134910192,0,0
134927864,0,0
134945544,0,0
134963232,0,0
134980908,0,0
134998584,0,0
135016264,0,0
135033952,0,0
135051636,0,0
135069316,0,0
135086996,1,0
135104668,0,0
135122344,0,0
135140032,0,0
135157700,0,0
135175392,0,0
135193072,1,0
135210752,0,1
135228428,0,0
135246120,0,1
135263780,0,0
135281460,0,0
135299148,0,0
135316832,0,0
135334508,0,0
135352184,0,0
135369872,0,0
135387552,0,0
135405228,0,0
135422896,0,0
135440588,0,0
135458264,0,0
135475952,0,0
135493620,0,0
135511312,0,0
135528996,1,0
135546676,1,0
135564348,0,0
135582032,0,0
135599704,0,0
135617392,0,0
135635068,0,0
135652752,1,0
135670428,0,0
135688112,0,1
135705792,0,0
135723464,0,0
135741144,0,0
135758816,0,0
135776512,0,1
135794192,0,0
135811864,0,0
135829552,0,0
135847232,1,0
135864908,1,0
135882592,0,0
135900272,0,0
135917952,0,0
135935624,0,0
135953304,0,0
135970992,0,0
135988664,0,0
136006344,1,0
136024016,0,0
136041708,0,0
136059384,0,0
136077068,4,0
136094756,4,0
136112444,0,0
136130112,0,0
136147800,1,0
136165476,4,0
136183156,0,0
136200832,1,0
136218500,0,0
136236196,1,0
136253876,0,0
136271556,0,0
136289224,0,0
136306908,0,1
136324584,0,0
136342276,0,0
136359952,0,0
136377628,0,0
136395304,0,0
136412984,0,0
136430668,0,0
136448352,0,0
136466036,1,0
136483716,1,0
136501392,0,0
136519072,0,0
136536740,0,0
136554416,0,0
136572112,0,0
136589792,0,0
136607472,0,0
136625136,0,0
136642828,0,0
136660520,0,0
136678184,0,0
136695876,1,0
136713556,0,0
136731240,0,1
136748908,0,0
136766592,0,0
136784272,0,0
136801944,0,0
136819616,0,0
136837312,0,0
136854992,0,0
136872672,0,0
136890348,0,0
136908032,0,0
136925712,0,0
136943384,0,0
136961072,0,0
136978748,0,0
136996420,0,0
137014112,0,0
137031792,0,0
137049472,0,0
137067156,1,1
137084832,1,1
137102512,0,0
137120188,0,0
137137864,0,0
137155540,4,0
137173240,1,0
137190908,0,0
137208584,0,0
137226276,0,0
137243952,0,0
137261624,0,0
137279304,0,0
137296992,0,0
137314676,0,0
137332352,0,0
137350028,0,0
137367712,0,0
137385384,0,0
137403064,0,0
137420740,0,0
137438436,1,0
137456108,0,0
137473780,0,0
137491468,0,0
137509156,0,0
137526836,0,0
137544504,0,0
137562188,0,0
137579872,0,0
137597544,0,0
137615224,1,0
137632912,0,0
137650604,0,0
137668272,0,0
137685944,1,0
137703648,1,1
137721308,0,0
137738988,0,1
137756664,0,1
137774348,0,0
137792032,0,0
137809704,0,0
137827392,0,0
137845076,0,0
137862744,0,0
137880432,1,1
137898112,0,0
137915792,0,0
137933460,0,0
137951140,0,0
137968836,0,0
137986512,0,1
138004184,0,0
138021864,0,0
138039552,0,0
138057232,0,0
138074904,0,0
138092592,0,0
138110284,0,0
138127952,0,0
138145628,0,0
138163316,1,1
138180992,1,0
138198664,0,0
138216344,0,0
138234032,0,0
138251712,0,1
138269384,0,0
138287060,0,0
138304752,0,0
138322428,1,0
138340104,0,0
138357788,0,0
138375472,0,0
138393148,1,0
138410828,0,0
138428528,0,0
138446204,0,0
138463876,1,0
138481544,1,0
138499232,0,0
138516900,0,0
138534596,1,0
138552272,1,0
138569968,0,0
138587636,0,0
138605316,1,0
138622988,0,0
138640668,0,0
138658344,0,0
138676036,1,0
138693716,0,0
138711404,0,1
138729072,0,0
138746756,1,0
138764432,0,0
138782112,0,0
138799780,0,0
138817452,0,0
138835152,0,0
138852824,0,0
138870504,0,0
138888184,0,0
138905872,0,0
138923552,0,0
138941232,0,0
138958912,0,0
138976592,0,0
138994264,0,0
139011952,0,0
139029632,0,0
139047316,0,0
139064992,0,0
139082656,0,0
139100348,0,0
139118032,0,0
139135708,0,0
139153384,0,0
139171072,0,0
139188752,0,0
139206432,0,0
139224108,0,0
139241796,1,0
139259464,1,0
139277148,1,0
139294836,1,0
139312512,1,0
139330196,1,0
139347864,0,0
139365552,0,0
139383224,0,0
139400904,0,0
139418584,0,0
139436272,0,0
139453944,0,0
139471636,1,0
139489316,1,0
139506992,0,0
139524676,1,0
139542352,1,0
139560028,0,0
139577712,0,0
139595384,0,1
139613068,0,0
139630748,0,0
139648424,0,0
139666112,0,0
139683784,0,0
139701468,0,1
139719144,0,0
139736836,0,1
139754512,0,1
139772196,1,0
139789872,0,0
139807556,1,0
139825228,0,1
139842916,1,0
139860588,0,0
139878260,0,0
139895952,1,0
139913632,0,0
139931304,0,0
139948980,0,0
139966684,0,0
139984352,0,0
140002024,0,0
140019696,0,0
140037392,0,0
140055076,1,0
140072748,1,0
140090432,0,0
140108112,0,0
140125784,0,0
140143468,0,0
140161164,1,0
140178832,0,0
140196512,0,1
140214180,1,1
140231872,0,0
140249556,1,0
140267236,4,0
140284904,1,0
140302596,9,0
140320284,4,0
140337956,4,1
140355632,25,0
140374364,36,1
140393072,9,1
140410756,9,1
140428444,36,1
140447152,36,1
140465872,9,0
140483540,4,0
140501236,25,0
140519960,4,0
140537624,16,0
140556360,1,0
140574040,64,0
140592756,16,1
140611480,81,1
140630212,9,1
140647876,9,36
140666588,100,169
140688444,25,144
140709244,169,1
140729004,9,49
140747708,1764,16
140769548,4761,0
140790344,2116,81
140812188,0,144
140831948,529,400
140853800,81,1849
140875628,100,225
140897472,81,361
140918268,0,256
140938036,9,1
140955724,0,4
140973400,16,225
140994196,49,529
141014996,1,64
141033724,9,0
141051376,25,1225
141073224,100,4761
141096120,36,1444
141117956,4,64
141136664,25,676
141157476,64,1369
141179308,36,841
141200112,100,1936
141223000,144,841
141244832,16,400
141265632,144,676
141287484,0,0
141305156,1,289
141324904,0,256
141344672,36,441
141365480,4,49
141384192,16,256
141404992,49,81
141424760,1,64
141443476,4,0
141461160,0,49
141479856,121,81
141500672,64,1156
141522516,4,289
141542280,1,196
141562036,0,36
141580756,9,784
141600508,100,5776
141623388,289,10609
141647316,144,576
141669156,64,961
141689956,49,1296
141711796,1,361
141731556,16,64
141751316,9,400
141771076,64,1369
141792908,25,196
141813708,64,1521
141835556,64,484
141856352,4,729
141876104,36,784
141896924,49,529
141917724,4,16
141936432,0,400
141956192,0,4
141973880,4,1
141991564,9,441
142011304,25,729
142032120,0,400
142051876,0,100
142071640,1,36
142090364,9,81
142109084,9,225
142128828,9,2025
142149628,36,2916
142171464,25,1089
142193312,4,3481
142214108,196,1600
142237004,49,25
142256752,25,400
142277540,1,441
142297316,4,400
142317072,16,1225
142338912,49,144
142359712,0,784
142379472,64,2500
142401312,49,49
142421088,49,841
142441876,16,144
142462668,121,4225
142485560,196,2025
142508436,25,256
142529232,36,36
142548988,36,0
142567716,0,289
142587472,81,576
142608276,81,36
142628040,9,729
142647792,9,1089
142668596,9,9
142686280,36,441
142707076,36,529
142727884,100,81
142748668,4,49
142767396,4,841
142787144,0,121
142806904,36,0
142825644,16,441
142846416,121,1764
142869308,225,5041
142892196,144,1936
142915076,4,64
142933800,100,841
142955636,36,961
142976432,49,1444
142998272,100,900
143020124,1,81
143038840,9,784
143058604,0,225
143078352,9,169
143098128,16,256
143118908,25,784
143139704,64,961
143160516,9,441
143180268,0,1600
143201072,81,784
143221880,9,81
143240596,0,25
143259324,4,64
143278028,4,1024
143298844,1,100
143318592,0,49
143337304,1,625
143357076,121,841
143378920,100,196
143400764,1,81
143419480,0,49
143438212,9,441
143457944,81,100
143478744,16,400
143499556,49,3481
143521388,196,2500
143544260,100,1296
143567156,100,1521
143590028,81,169
143610828,4,16
143629560,0,196
143649320,36,289
143670116,1,121
143689880,9,4
143707560,4,100
143727312,36,784
143748116,36,961
143768920,9,361
143788676,16,81
143808420,25,16
143828200,1,16
143846912,4,676
143866676,16,256
143887484,4,81
143906196,9,625
143925952,9,36
143944680,9,100
143964444,9,16
143983152,4,25
144001872,1,225
144021636,0,289
144041388,1,0
144059064,0,961
144078828,100,4489
144101724,100,16
144122520,49,1024
144144352,4,676
144164112,25,9
144182824,9,2025
144203616,36,1521
144225464,25,2304
144247308,25,1936
144269152,64,81
144288916,0,81
144307636,36,64
144327396,49,256
144348204,25,1600
144370036,1,3025
144390828,36,3481
144412668,100,1225
144435560,4,9
144453228,0,16
144471956,9,625
144491720,16,1681
144513556,64,1089
144535396,121,64
144556196,9,121
144575956,25,81
144595716,9,16
144614436,9,100
144634208,1,81
144652924,0,4
144670584,4,100
144690352,16,900
144711152,49,324
144731956,25,4
144750684,0,36
144769396,0,64
144788104,16,900
144808900,81,361
144829708,1,1849
144850516,100,484
144872344,36,81
144892132,25,4
144910840,25,25
144930584,4,289
144950368,0,16
144969092,25,9
144987792,4,100
145007540,1,196
145027324,36,1521
145049148,49,196
145069960,1,36
145088680,1,0
145106352,0,81
145125068,0,1
145142748,9,225
145162520,9,841
145182276,25,625
145203080,16,0
145221804,1,100
145241552,1,25
145260272,0,16
145279004,4,144
145298764,16,9
145317468,0,225
145337224,0,289
145356988,64,2209
145378840,36,841
145399628,0,256
145419400,16,25
145439156,25,36
145458904,16,576
145479712,36,225
145500520,1,121
145520272,144,1296
145543140,144,784
145565000,9,9
145582648,4,625
145602432,1,1089
145623236,9,100
145642984,25,576
145663796,16,9
145682524,4,4
145700200,9,121
145719956,16,400
145740744,0,4
145758432,0,324
145778204,4,25
145796916,9,361
145816672,1,3481
145837468,144,7056
145860348,225,1369
145883240,1,16
145901956,0,36
145920668,9,0
145938340,4,144
145958124,4,0
145975800,16,49
145995548,0,9
146013232,0,16
146031956,0,100
146051708,0,441
146071472,1,100
146091244,16,0
146109960,36,64
146129720,0,100
146149480,9,144
146169232,16,256
146190040,0,49
146208752,16,169
146229556,9,0
146247224,1,25
146265956,9,9
146283636,1,64
146302364,0,81
146321072,0,49
146339784,9,100
146359564,25,1
146378280,0,100
146398032,4,1
146415716,25,196
146436524,16,1
146455232,4,25
146473952,25,289
146494764,16,25
146514512,16,0
146533228,0,16
146551956,4,36
146570676,0,25
146589396,1,16
146608104,0,484
146627884,36,169
146648676,9,9
146666348,1,1156
146687156,36,1936
146708988,25,4
146727708,16,529
146748520,1,49
146767236,25,625
146788032,0,225
146807788,49,225
146828608,4,1
146846280,9,49
146864996,4,4
146882676,16,256
146903480,1,729
146923236,64,361
146944052,4,484
146963804,4,529
146983552,4,961
147003296,0,1764
147024116,0,900
147043872,4,729
147063636,25,400
147084432,4,400
147104184,4,324
147123956,36,9
147142692,4,256
147162452,36,196
147183224,0,25
147201948,1,4
147219644,25,36
147239396,9,1
147257060,4,484
147276836,1,1521
147297644,4,324
147317392,4,64
147336112,0,25
147354840,9,289
147374596,1,0
147392272,9,100
147412036,0,121
147431796,9,4
147449468,9,144
147469228,25,25
147488996,9,4
147506676,1,49
147525396,1,36
147544120,9,9
147561800,1,64
147580508,9,484
147600272,25,64
147620044,16,49
147639784,64,361
147660596,4,0
147678276,49,256
147699068,49,576
147719868,36,784
147740664,81,841
147761476,49,625
147782268,1,4
147799956,4,196
147819720,0,169
147839484,16,16
147859232,36,25
147879004,1,4
147896672,0,100
147916432,4,9
147934116,9,1
147951796,4,36
147970512,1,400
147990272,25,225
148011088,4,16
148029800,4,1
148047480,0,0
148065156,4,100
148084920,1,4
148102600,9,289
148122356,4,4
148140024,9,121
148159796,1,16
148178520,1,9
148196200,1,25
148214912,16,361
148235712,25,625
148256508,36,361
148277320,16,16
148297084,16,169
148317868,36,256
148338676,4,49
148357404,4,25
148376116,16,0
148394832,0,64
148413552,4,361
148433316,1,289
148453076,1,36
148471788,9,49
148490520,1,9
148508204,9,225
148527944,0,81
148546684,1,25
148565404,4,25
148584116,16,1
148602824,0,64
148621552,0,64
148640272,0,121
148660036,9,49
148678768,4,25
148697472,4,64
148716196,9,49
148734908,0,144
148754672,0,81
148773400,9,25
148792108,9,64
148810832,9,36
148829564,9,4
148847232,16,1
148865952,4,1
148883644,4,100
148903400,1,16
148922108,0,4
148939796,1,121
148959552,16,841
148980348,64,529
149001148,9,9
149018836,9,100
149038584,81,484
149059392,36,81
149079160,4,25
149097880,1,81
149116584,0,25
149135300,0,25
149154036,0,49
149172768,1,0
149190440,4,49
149209164,0,169
149228912,0,324
149248668,1,64
149267388,0,49
149286128,1,144
149305892,16,0
149324592,4,25
149343328,1,16
149362044,25,49
149381800,0,49
149400508,9,529
149420276,1,324
149440036,4,4
149457720,1,36
149476444,9,9
149494128,16,1
149512848,1,4
149530512,0,36
149549236,9,484
149568988,64,1849
149590828,64,196
149611636,1,100
149631396,0,121
149651148,9,0
149668828,0,64
149687568,9,100
149707320,9,169
149727068,1,81
149745796,1,36
149764516,4,64
149783236,4,81
149801944,1,16
149820676,0,16
149839404,1,36
149858108,1,0
149875792,0,25
149894516,0,1
149912188,9,289
149931936,49,900
149952752,25,169
149973556,0,0
149991232,0,25
150009960,0,100
150029736,1,25
150048436,1,25
150067144,0,64
150085872,4,64
150104604,1,36
150123316,1,81
150142044,9,25
150160756,4,144
150180508,4,625
150200268,25,81
150220044,1,4
150237728,1,16
150256428,9,0
150274120,1,4
150291796,9,16
