Timestamp (micros),Sensor1 (mV),Sensor2 (mV),Label
51608,8836,11025,5
53864,4356,10000,5
56144,64,484,5
58248,0,100,5
60316,900,144,5
77292,4,729,5
92880,0,2401,5
109520,576,1681,5
129304,1,1,5
143860,441,4,5
160508,25,1,5
176084,121,0,5
192732,36,196,5
210412,25,49,5
227056,36,64,5
243692,9,1,5
258268,9,36,5
273856,1,49,5
289452,36,16,5
306092,64,25,5
322748,0,4,5
337304,4,9,5
351848,4,25,5
367460,9,4,5
382028,25,16,5
398668,9,0,5
413232,4,4,5
427772,4,36,5
443372,1,4,5
457936,0,4,5
472500,0,16,5
488100,4,25,5
503692,16,64,5
520348,4,1,5
534900,4,36,5
550508,25,1,5
566092,25,225,5
583780,100,289,5
602496,196,441,5
621212,36,289,5
638896,1,36,5
654496,16,4,5
670104,0,9,5
684656,36,144,5
702332,0,729,5
718976,121,361,5
737696,64,1764,5
756428,324,784,5
775140,4,9,5
789704,4,256,5
806328,49,4900,5
825036,4,2916,5
842724,144,729,5
861468,36,1936,5
880172,196,2025,5
899924,1156,0,5
917620,25,6561,5
936340,400,3969,5
956088,1,3364,5
973764,144,6400,5
993540,529,1225,5
1013300,0,16,5
1029932,9,841,5
1047612,0,1156,5
1066352,36,16,5
1084008,36,1369,5
1103772,484,1849,5
1124580,81,324,5
1143300,25,1444,5
1163056,36,25,5
1180740,36,64,5
1198432,81,225,5
1217144,0,81,5
1233784,100,64,5
1252512,0,36,5
1269140,9,529,5
1286812,196,729,5
1306564,4,289,5
1324268,36,196,5
1342980,4,16,5
1359612,0,121,5
1377288,36,1156,5
1397056,225,4624,5
1417856,576,1024,5
1438656,1,144,5
1456356,81,841,5
1475048,400,1156,5
1495852,25,196,5
1514584,1,0,5
1530180,1,9,5
1545780,9,49,5
1562420,1,289,5
1580096,121,49,5
1598816,25,144,5
1617544,1,441,5
1635224,25,169,5
1653948,25,16,5
1671616,1,81,5
1688240,4,1936,5
1706968,100,4356,5
1727788,169,100,5
1747536,4,289,5
1765220,16,81,5
1782908,9,169,5
1800576,9,196,5
1818248,16,25,5
1835936,0,4,5
1851536,0,16,5
1868188,0,4,5
1883776,36,9,5
1900420,4,1,5
1916028,4,81,5
1932668,1,121,5
1950340,0,4,5
1965932,0,0,5
1981540,25,16,5
1999216,16,9,5
2015856,0,4,5
2031460,0,0,5
2047060,9,25,5
2063700,9,25,5
2080336,25,324,5
2099060,64,121,5
2117796,16,225,5
2136496,25,1369,5
2156244,100,1156,5
2177060,49,49,5
2194740,4,25,5
2211384,25,144,5
2230100,1,196,5
2247772,100,324,5
2267532,100,1024,5
2288348,9,1024,5
2307056,36,1024,5
2326828,49,529,5
2345544,16,484,5
2364260,16,324,5
2382992,1,64,5
2399632,4,25,5
2416260,25,841,5
2434976,49,1849,5
2454740,64,961,5
2473456,36,144,5
2492168,4,729,5
2509864,49,2401,5
2529628,16,36,5
2547304,4,289,5
2564980,16,256,5
2583708,36,729,5
2602412,36,400,5
2621148,1,289,5
2638812,25,729,5
2657548,361,841,5
2677300,100,256,5
2697056,1,49,5
2713708,36,0,5
2730344,0,529,5
2748028,169,529,5
2767772,81,36,5
2785468,1,36,5
2802096,0,121,5
2819776,16,1,5
2836412,16,4,5
2853068,16,0,5
2869692,36,64,5
2887380,1,16,5
2904020,9,400,5
2921696,9,529,5
2939372,0,4,5
2954984,4,196,5
2972648,0,9,5
2988268,25,4,5
3004892,16,676,5
3023612,36,1600,5
3043380,36,324,5
3062100,0,16,5
3078732,25,4,5
3095380,16,1,5
3112028,9,36,5
3128660,0,64,5
3145292,16,361,5
3164004,49,900,5
3182736,81,196,5
3201460,1,1,5
3217056,4,0,5
3232660,4,1,5
3248264,4,25,5
3264900,1,100,5
3282576,4,25,5
3299216,0,1,5
3314824,4,9,5
3330432,1,25,5
3347056,0,4,5
3362656,1,169,5
3380352,4,169,5
3398020,1,64,5
3414656,4,324,5
3432340,9,400,5
3450024,9,196,5
3467688,16,4,5
3484336,0,4,5
3499936,0,36,5
3516588,9,1,5
3532188,0,1,5
3547780,4,121,5
3565464,25,49,5
3583144,1,1,5
3598736,0,0,5
3614340,4,16,5
3630988,4,16,5
3647620,4,361,5
3665296,4,81,5
3681940,0,36,5
3698576,9,9,5
3714180,9,4,5
3729788,0,49,5
3746424,4,144,5
3764096,25,81,5
3781784,1,4,5
3797380,4,121,5
3815048,0,64,5
3831704,0,1,5
3847308,0,0,5
3862912,0,49,5
3879532,0,64,5
3896176,0,0,5
3911784,16,16,5
3929468,9,256,5
3947132,49,2401,5
3966888,225,2116,5
3987696,81,225,5
4006432,1,9,5
4022020,1,0,5
4037620,36,100,5
4056348,25,25,5
4074032,4,1,5
4089624,4,36,5
4106260,0,121,5
4123948,16,16,5
4141620,1,0,5
4157208,0,0,5
4172828,4,4,5
4188432,4,0,5
4204016,0,4,5
4219620,1,25,5
4236252,16,121,5
4254988,36,256,5
4273712,9,25,5
4290348,1,25,5
4306980,4,100,5
4324660,0,9,5
4340256,0,16,5
4356900,16,0,5
4373544,0,25,5
4390188,4,49,5
4406824,0,36,5
4423464,1,9,5
4439072,1,1,5
4454664,9,36,5
4471304,0,49,5
4487936,49,81,5
4505616,16,9,5
4522260,0,1,5
4537860,0,9,5
4553452,1,1,5
4569052,1,81,5
4585696,1,81,5
4602340,0,256,5
4620012,25,1156,5
4639772,64,900,5
4658492,36,225,5
4677220,9,4,5
4692820,0,289,5
4710508,9,529,5
4728188,9,0,5
4743780,0,144,5
4761460,0,361,5
4779140,9,529,5
4796820,25,169,5
4815528,9,36,5
4832164,49,256,5
4850904,169,841,5
4870652,121,324,5
4890416,1,16,5
4907064,4,64,5
4923712,9,16,5
4940336,1,81,5
4956988,0,16,5
4973628,9,36,5
4990264,16,121,5
5008984,0,36,5
5025632,36,576,5
5044348,36,225,5
5063060,4,4,5
5078648,0,16,5
5095300,0,1,5
5110904,9,9,5
5126500,16,144,5
5145220,1,1,5
5160816,0,256,5
5178500,9,100,5
5196196,1,121,5
5213856,36,121,5
5232576,36,225,5
5251312,25,1,5
5267924,100,1024,5
5288732,144,729,5
5308512,4,64,5
5325148,0,9,5
5340740,9,36,5
5357376,49,0,5
5374012,0,144,5
5391704,49,676,5
5410416,9,576,5
5428104,0,961,5
5445776,25,1089,5
5465540,9,25,5
5482172,64,196,5
5500896,1,64,5
5517548,4,9,5
5533128,16,100,5
5551860,9,49,5
5568504,0,1,5
5584120,4,9,5
5599688,1,2304,5
5618412,289,5776,5
5639220,256,784,5
5658984,4,441,5
5676652,36,961,5
5695380,1,16,5
5712024,0,256,5
5729704,0,361,5
5747372,9,441,5
5765048,4,0,5
5780664,1,100,5
5798344,16,784,5
5817060,4,49,5
5833688,0,256,5
5851388,9,121,5
5869060,9,16,5
5885696,49,484,5
5904432,196,361,5
5924180,49,9,5
5940824,0,1,5
5956432,9,0,5
5972028,1,100,5
5989704,4,256,5
6007384,4,25,5
6024020,9,484,5
6041708,1,100,5
6059392,4,81,5
6076020,4,100,5
6093704,4,144,5
6111396,9,9,5
6126984,1,4,5
6142572,1,225,5
6160252,4,121,5
6177940,16,324,5
6196644,196,4,5
6214336,4,2304,5
6233044,64,841,5
6251784,9,49,5
6268408,81,361,5
6287136,16,400,5
6305864,36,625,5
6324576,169,441,5
6344348,49,400,5
6363052,0,784,5
6380740,4,1369,5
6399452,169,3025,5
6420264,361,576,5
6440024,9,361,5
6457700,81,3025,5
6477452,361,4096,5
6498244,4,1089,5
6516980,64,0,5
6533624,16,16,5
6551296,4,225,5
6568976,36,16,5
6586668,1,16,5
6603312,25,484,5
6622024,0,81,5
6638668,9,441,5
6656344,49,729,5
6675044,225,529,5
6694812,225,144,5
6714580,9,25,5
6731224,4,225,5
6748900,9,16,5
6765532,36,784,5
6784268,0,576,5
6801948,0,9,5
6817532,4,441,5
6835216,49,900,5
6853944,81,529,5
6872656,0,441,5
6890332,1,1936,5
6909056,100,3136,5
6929848,49,676,5
6948568,4,16,5
6965212,0,121,5
6982912,4,289,5
7000580,9,9,5
7016172,1,36,5
7032816,1,100,5
7050500,25,361,5
7069228,36,289,5
7087936,4,25,5
7104584,1,9,5
7120184,1,36,5
7136820,1,25,5
7153460,4,16,5
7170096,0,16,5
7186752,4,9,5
7202348,0,121,5
7220028,9,0,5
7235636,4,9,5
7251228,9,121,5
7268896,25,81,5
7286580,4,0,5
7302192,1,16,5
7318828,0,121,5
7336492,1,81,5
7353136,1,9,5
7368744,1,4,5
7384336,0,4,5
7399940,9,4,5
7415536,0,49,5
7432176,1,9,5
7447780,9,49,5
7464408,9,9,5
7480016,16,16,5
7497688,16,100,5
7516424,0,256,5
7534104,1,196,5
7551776,0,9,5
7567376,4,49,5
7584028,4,324,5
7601704,36,64,5
7619384,1,0,5
7634976,16,1,5
7651620,4,100,5
7669300,9,81,5
7685940,1,36,5
7702584,36,81,5
7720256,0,1,5
7735860,1,64,5
7752500,1,81,5
7769148,1,4,5
7784744,0,1,5
7800348,9,64,5
7816968,0,36,5
7833620,4,0,5
7849216,0,25,5
7865856,1,16,5
7882492,1,0,5
7898096,0,25,5
7914748,0,64,5
7931380,0,16,5
7948020,0,100,5
7965692,9,9,5
7981316,16,4,5
7997940,0,1,5
8013536,25,64,5
8031204,9,64,5
8047860,0,121,5
8065532,1,100,5
8083220,9,100,5
8100912,9,169,5
8118580,9,49,5
8135220,0,9,5
8150836,1,4,5
8166424,25,1,5
8183068,0,1,5
8198660,1,9,5
8214252,1,256,5
8231928,49,961,5
8250660,49,64,5
8268340,16,81,5
8286020,49,100,5
8304740,4,81,5
8321384,1,25,5
8338024,9,49,5
8354656,16,576,5
8373384,25,1600,5
8393144,49,361,5
8411848,9,81,5
8428488,4,256,5
8446176,1,1156,5
8464900,36,1764,5
8484656,16,225,5
8503384,25,1,5
8520028,25,100,5
8538736,0,576,5
8556412,0,289,5
8574112,1,16,5
8590744,4,4,5
8606340,0,64,5
8622988,9,1,5
8638588,0,1,5
8654192,9,225,5
8671864,1,4,5
8687460,16,196,5
8706192,1,1,5
8721780,9,676,5
8739460,4,961,5
8757140,9,121,5
8774816,4,1521,5
8793532,121,3844,5
8814340,121,576,5
8834116,25,1,5
8850744,16,9,5
8867372,4,324,5
8885056,1,961,5
8902736,49,289,5
8921472,25,16,5
8939148,4,0,5
8954748,1,4,5
8970348,0,64,5
8986996,9,4,5
9002572,0,256,5
9020252,16,144,5
9038992,1,361,5
9056668,4,225,5
9074336,25,4,5
9090976,0,324,5
9108656,64,361,5
9127372,64,9,5
9144024,1,324,5
9161700,0,484,5
9179380,9,324,5
9197052,49,36,5
9214744,1,1,5
9230344,1,1,5
9245940,1,49,5
9262580,1,25,5
9279220,0,484,5
9296904,9,64,5
9313544,4,49,5
9330184,16,0,5
9346824,9,25,5
9363452,9,16,5
9380096,0,16,5
9396740,4,25,5
9413380,9,196,5
9431060,4,144,5
9448740,1,16,5
9465384,1,0,5
9480972,0,4,5
9496584,0,1,5
9512200,1,225,5
9529860,1,441,5
9547532,0,9,5
9563128,36,729,5
9581856,16,441,5
9600584,9,0,5
9616176,4,81,5
9632816,4,0,5
9648420,0,64,5
9665080,1,9,5
9680660,1,25,5
9697296,36,441,5
9716016,100,1369,5
9736820,100,729,5
9756572,49,64,5
9774268,16,1,5
9790892,1,0,5
9806504,0,49,5
9823132,9,289,5
9840820,1,121,5
9858500,4,25,5
9875132,0,64,5
9891776,16,1,5
9908416,1,0,5
9924016,9,324,5
9941688,0,225,5
9959376,4,9,5
9974984,9,4,5
9990576,0,144,5
10008256,1,361,5
10026980,9,49,5
10044664,1,25,5
10062336,25,441,1
10082096,16,121,1
10101856,0,121,1
10120580,0,1024,1
10140336,25,1521,1
10161132,16,529,1
10180892,4,1369,1
10200648,25,2304,1
10221452,144,1296,1
10243304,196,256,1
10264104,36,676,1
10283848,144,784,1
10304668,144,81,1
10324408,121,256,1
10345216,256,4,1
10363948,25,81,1
10382664,225,36,1
10402420,81,9,1
10420100,49,0,1
10437788,16,0,1
10455460,1,25,1
10473140,1,0,1
10489768,0,4,1
10506436,196,4,1
10525136,676,25,1
10544896,256,16,1
10564672,1,16,1
10582352,1,9,1
10598968,4,0,1
10615612,25,0,1
10633304,9,1,1
10649956,0,1,1
10666580,9,1,1
10683224,49,0,1
10700904,100,1,1
10719624,16,9,1
10737304,49,0,1
10754976,25,25,1
10773708,4,16,1
10791380,16,0,1
10809060,0,9,1
10825700,25,9,1
10843380,4,9,1
10860012,0,16,1
10877688,25,4,1
10895380,81,1,1
10913056,64,4,1
10930728,0,0,1
10947384,64,4,1
10965068,169,1,1
10983788,49,0,1
11001456,0,0,1
11018100,9,1,1
11034748,4,1,1
11051384,4,0,1
11068016,4,0,1
11084660,4,0,1
11101296,0,25,1
11118976,36,25,1
11137708,4,4,1
11154332,144,0,1
11173068,256,4,1
11191772,0,4,1
11208416,81,0,1
11226088,4,0,1
11242744,16,0,1
11260412,1,0,1
11277060,4,1,1
11293692,9,0,1
11310336,16,0,1
11328032,1,1,1
11344656,9,4,1
11361300,9,0,1
11377944,289,0,1
11396656,225,36,1
11416420,1,100,1
11435148,9,16,1
11452828,4,0,1
11469456,100,4,1
11488168,0,1,1
11504816,289,4,1
11523540,36,0,1
11541216,0,9,1
11557860,49,0,1
11575540,256,0,1
11594268,36,4,1
11611944,25,25,1
11630656,64,0,1
11648348,4,4,1
11664976,16,0,1
11682660,4,4,1
11699312,9,9,1
11715948,1,16,1
11733616,4,4,1
11750260,36,4,1
11767940,1,25,1
11785624,4,1,1
11802260,169,1,1
11820972,400,1,1
11839712,4,16,1
11857380,121,4,1
11876104,36,4,1
11893788,1,25,1
11911456,36,0,1
11929140,144,25,1
11948904,324,4,1
11967632,49,9,1
11985300,64,16,1
12004012,0,0,1
12020656,64,25,1
12039388,100,9,1
12058100,36,1,1
12075788,225,4,1
12094512,529,0,1
12113224,64,16,1
12131932,0,9,1
12148580,121,0,1
12167308,256,0,1
12186032,4,4,1
12202664,81,9,1
12220340,1,1,1
12236980,25,0,1
12254660,25,0,1
12272340,0,4,1
12288968,1,1,1
12305620,9,0,1
12322252,49,4,1
12339936,81,1,1
12357616,169,0,1
12376344,144,9,1
12395060,256,25,1
12414824,81,4,1
12432504,9,9,1
12449140,36,4,1
12466816,169,0,1
12485532,0,9,1
12502192,0,9,1
12518828,121,1,1
12537540,36,1,1
12555212,100,9,1
12573944,225,9,1
12592668,144,16,1
12612420,169,1,1
12631136,144,9,1
12649864,1,16,1
12667540,100,0,1
12686256,16,1,1
12703948,1,0,1
12720576,49,1,1
12738260,16,0,1
12755932,100,0,1
12774668,256,1,1
12793380,81,4,1
12811056,169,0,1
12829784,529,9,1
12848500,225,36,1
12868260,36,16,1
12886972,1,0,1
12903628,36,0,1
12921304,25,0,1
12938980,49,1,1
12956660,49,1,1
12974336,100,0,1
12993072,25,0,1
13010748,9,1,1
13027384,16,1,1
13045064,64,0,1
13062740,0,4,1
13079384,16,0,1
13097068,9,0,1
13113704,9,0,1
13130340,121,0,1
13149060,25,1,1
13166736,9,16,1
13184424,225,1,1
13203144,576,0,1
13221856,225,25,1
13241628,16,9,1
13259308,100,0,1
13278020,225,9,1
13296744,400,25,1
13316516,324,16,1
13336264,64,36,1
13354976,81,25,1
13373704,49,1,1
13391388,1,4,1
13408016,64,9,1
13425700,100,0,1
13444436,1,1,1
13461056,1,1,1
13477692,81,4,1
13495388,225,4,1
13514100,144,1,1
13532812,16,1,1
13550492,100,1,1
13569224,100,4,1
13587944,225,9,1
13606656,144,1,1
13625380,36,9,1
13643076,144,1,1
13661788,484,4,1
13680496,0,25,1
13698188,49,9,1
13715864,36,1,1
13733528,256,0,1
13752256,64,4,1
13769948,0,0,1
13786580,1,0,1
13803220,49,1,1
13820896,4,4,1
13837536,0,16,1
13855212,4,0,1
13871860,64,0,1
13889532,196,9,1
13908272,121,9,1
13926980,100,64,1
13946744,16,1,1
13964428,169,4,1
13983136,576,1,1
14001860,576,9,1
14020572,225,16,1
14040344,4,4,1
14056984,400,0,1
14075696,576,9,1
14094432,25,16,1
14113148,49,1,1
14130824,0,9,1
14147460,1,1,1
14164108,1,0,1
14180748,100,0,1
14199464,64,1,1
14217144,36,4,1
14234820,324,9,1
14253540,225,16,1
14273292,64,25,1
14292028,25,9,1
14309708,4,9,1
14326328,0,9,1
14342972,1,4,1
14359632,9,0,1
14376264,9,0,1
14392904,49,0,1
14410580,121,0,1
14429304,1,9,1
14445948,16,9,1
14463616,36,1,1
14481288,100,0,1
14500024,25,16,1
14518748,196,1,1
14537460,324,4,1
14556188,4,9,1
14572828,4,1,1
14589468,196,1,1
14608180,16,4,1
14625872,25,9,1
14643548,1,1,1
14660180,16,1,1
14677856,64,4,1
14695544,484,1,1
14714268,64,16,1
14732980,49,9,1
14750652,1,0,1
14767300,9,0,1
14783944,4,0,1
14800580,121,1,1
14819292,256,4,1
14838016,169,36,1
14857780,4,1,1
14874416,16,0,1
14892104,121,0,1
14910820,841,1,1
14929536,64,25,1
14948252,25,16,1
14966980,64,9,1
14984656,64,0,1
15002328,196,9,1
15021048,121,0,1
15039780,25,4,1
15057456,81,4,1
15075144,1,16,1
15092816,1,16,1
15110496,0,1,1
15127132,4,0,1
15143780,100,1,1
15162504,256,9,1
15181216,784,16,1
15200980,729,16,1
15220732,36,64,1
15239472,225,16,1
15259220,169,36,1
15278972,256,16,1
15298744,49,4,1
15316420,324,49,1
15336184,289,9,1
15354904,9,4,1
15371544,0,4,1
15388184,25,0,1
15405856,144,1,1
15424588,64,1,1
15442268,9,1,1
15458900,49,0,1
15476580,49,9,1
15494268,9,4,1
15510900,1,4,1
15527528,16,0,1
15545212,256,1,1
15563944,121,1,1
15582668,1,9,1
15599300,25,1,1
15616976,81,0,1
15634676,100,1,1
15653368,81,16,1
15672096,49,1,1
15689792,49,9,1
15707464,361,1,1
15726180,225,36,1
15745936,16,9,1
15763628,1,1,1
15780268,1,1,1
15796888,16,0,1
15814576,169,1,1
15833308,36,1,1
15850968,100,4,1
15869692,36,0,1
15887392,49,1,1
15905072,36,1,1
15922732,16,16,1
15941460,81,0,1
15959148,196,1,1
15977864,289,0,1
15996576,81,9,1
16014256,49,16,1
16032988,121,1,1
16051696,64,9,1
16069376,25,25,1
16088096,729,0,1
16106816,484,25,1
16126572,36,25,1
16145292,25,0,1
16162980,16,4,1
16180652,256,0,1
16199388,441,9,1
16218096,729,36,1
16237860,64,25,1
16256580,169,25,1
16276336,256,0,1
16295068,400,16,1
16314808,64,16,1
16333528,64,64,1
16352248,169,1,1
16370992,36,9,1
16388664,16,4,1
16406340,0,1,1
16422988,64,0,1
16440668,4,4,1
16457288,16,16,1
16476028,144,4,1
16494756,49,0,1
16512420,100,0,1
16531132,4,0,1
16547764,0,36,1
16565468,4,64,1
16583148,9,16,1
16600820,25,0,1
16618488,100,9,1
16637228,4,4,1
16653868,121,1,1
16672584,25,0,1
16690268,100,1,1
16708992,400,4,1
16727696,784,25,1
16747444,361,25,1
16767228,0,25,1
16784892,25,9,1
16802568,9,0,1
16819216,81,0,1
16836904,289,1,1
16855624,1,9,1
16872252,484,4,1
16890996,841,4,1
16909696,289,25,1
16929460,1,16,1
16947132,49,0,1
16964832,36,1,1
16982512,9,1,1
16999140,25,0,1
17016816,121,0,1
17035548,196,0,1
17054260,9,16,1
17071940,1,1,1
17088588,121,0,1
17107300,196,25,1
17127064,4,25,1
17144744,81,1,1
17162424,144,1,1
17181144,100,1,1
17199868,0,1,1
17216488,169,0,1
17235228,576,9,1
17253924,196,9,1
17272660,81,4,1
17290340,289,4,1
17309060,81,9,1
17326740,4,4,1
17343380,4,1,1
17360020,64,0,1
17377712,196,1,1
17396420,121,9,1
17415128,81,9,1
17432824,25,4,1
17450488,81,0,1
17468168,121,0,1
17486912,25,4,1
17504588,225,4,1
17523292,49,0,1
17540988,4,9,1
17557632,0,9,1
17574268,1,4,1
17590908,0,1,1
17607528,36,0,1
17625216,64,1,1
17642900,36,0,1
17660580,25,1,1
17678256,289,0,1
17696984,400,1,1
17715700,36,25,1
17734408,121,4,1
17753140,484,0,1
17771860,81,16,1
17790584,1,36,1
17808260,16,1,1
17825936,16,4,1
17843616,81,0,1
17861296,225,0,1
17880004,25,9,1
17897700,0,25,1
17915384,49,1,1
17933056,289,4,1
17951780,225,9,1
17970512,25,1,1
17988176,196,1,1
18006900,144,9,1
18025624,0,16,1
18043308,144,1,1
18062020,361,1,1
18080732,100,16,1
18100508,0,0,1
18117136,1,1,1
18133776,0,1,1
18150420,9,0,1
18167064,9,0,1
18183712,9,4,1
18200340,144,4,1
18219072,400,0,1
18237788,400,16,1
18257540,64,36,1
18276256,1,9,1
18292904,36,4,1
18310580,9,4,1
18327220,49,0,1
18344904,1,0,1
18361536,100,4,1
18380260,25,9,1
18397936,25,16,1
18416668,25,0,1
18434356,4,1,1
18450988,64,1,1
18468660,0,36,1
18486348,64,4,1
18504032,9,4,1
18520652,529,1,1
18539380,81,16,1
18558104,25,16,1
18576816,9,4,1
18593456,36,1,1
18611136,4,1,1
18627780,9,9,1
18644420,49,0,1
18662096,64,25,1
18680812,16,0,1
18698516,4,1,1
18715128,196,16,1
18734892,361,0,1
18753624,400,25,1
18773388,225,9,1
18792104,25,4,1
18809784,16,4,1
18827464,0,1,1
18844096,25,0,1
18861784,144,1,1
18880500,1,0,1
18897140,81,0,1
18914816,100,9,1
18933540,81,1,1
18951224,4,0,1
18967860,225,0,1
18986576,25,25,1
19005300,1,4,1
19021936,4,4,1
19038576,16,0,1
19056260,9,4,1
19072904,81,1,1
19090588,0,4,1
19107224,225,0,1
19125948,441,1,1
19144656,441,36,1
19164416,16,64,1
19183152,16,9,1
19200820,25,4,1
19218512,0,4,1
19235148,169,1,1
19253860,0,0,1
19270500,121,1,1
19289216,0,4,1
19305860,9,4,1
19322496,0,1,1
19339140,36,4,1
19356820,100,0,1
19375540,4,4,1
19392176,16,9,1
19409844,49,0,1
19427540,1,0,1
19444184,0,0,1
19460824,49,0,1
19478496,0,1,1
19495140,64,0,1
19512816,16,4,1
19530500,64,1,1
19548184,256,0,1
19566904,81,9,1
19584580,1,4,1
19601220,9,0,1
19617864,100,0,1
19636580,36,4,1
19654260,1,1,1
19670900,9,1,1
19687552,16,1,1
19705220,16,1,1
19722896,9,1,1
19739536,0,4,1
19756184,361,0,1
19774900,1296,9,1
19794656,625,36,1
19814432,625,49,1
19834184,900,16,1
19853940,361,49,1
19873688,256,36,1
19893468,289,1,1
19912168,144,16,1
19931928,25,16,1
19950660,0,0,1
19967308,9,0,1
19983940,4,1,1
20000576,144,0,1
20019308,169,1,1
20038028,49,4,1
20055700,100,0,6
20074416,0,16,6
20092104,9,1,6
20108748,81,1,6
20126412,100,4,6
20145136,16,4,6
20162824,100,1,6
20181544,196,1,6
20200264,9,4,6
20216908,9,0,6
20233544,9,9,6
20250168,144,0,6
20268900,169,0,6
20287620,16,16,6
20306344,64,0,6
20324016,324,0,6
20342736,169,25,6
20362504,16,9,6
20380180,121,0,6
20398912,484,1,6
20417624,256,4,6
20436344,9,25,6
20454008,9,4,6
20470660,36,0,6
20488352,49,4,6
20506016,256,0,6
20524740,49,25,6
20543452,25,4,6
20561148,81,1,6
20578824,0,0,6
20595460,25,1,6
20613140,289,4,6
20631860,25,9,6
20649544,25,1,6
20667212,25,0,6
20684912,225,0,6
20703624,100,4,6
20722332,1,4,6
20738972,1,1,6
20755620,25,0,6
20773296,81,0,6
20790980,16,4,6
20808660,1,1,6
20825312,64,4,6
20842980,81,1,6
20860644,64,4,6
20878324,64,0,6
20896024,9,1,6
20912664,100,4,6
20931376,121,4,6
20950108,25,16,6
20968816,49,0,6
20986504,25,1,6
21004176,1,16,6
21021856,16,0,6
21039536,16,1,6
21057220,1,4,6
21073856,49,0,6
21091540,49,0,6
21109212,49,4,6
21126900,1,1,6
21143528,4,0,6
21160188,36,0,6
21177848,100,0,6
21196568,81,4,6
21214268,0,4,6
21230904,256,4,6
21249620,361,1,6
21268328,4,49,6
21286028,100,9,6
21304752,4,4,6
21321380,25,1,6
21339044,64,0,6
21356744,121,1,6
21375460,36,1,6
21393136,100,1,6
21411860,9,1,6
21428508,441,0,6
21447208,1024,0,6
21466976,900,9,6
21485684,400,49,6
21505464,16,36,6
21524180,4,4,6
21540812,1,0,6
21557468,4,1,6
21574096,36,0,6
21591780,4,4,6
21608416,16,1,6
21626096,25,0,6
21643772,196,0,6
21662484,64,1,6
21680176,64,9,6
21697848,1521,0,6
21717608,196,36,6
21737364,3481,196,6
21759216,4096,64,6
21780000,1521,400,6
21801856,1,1,6
21818496,16,1,6
21836184,3844,1,6
21855928,2704,9,6
21875680,0,49,6
21893372,9409,64,6
21914164,11025,121,6
21937036,3969,900,6
21958876,15625,0,6
21979680,7225,2209,6
22002560,1600,784,6
22024396,10609,225,6
22047276,20164,841,6
22070180,961,1024,6
22092012,11449,324,6
22114896,4356,4,6
22134632,11664,121,6
22157528,5041,1,6
22177296,49,484,6
22197036,27225,169,6
22219932,0,676,6
22238644,1444,3844,6
22261540,2116,324,6
22283376,1089,484,6
22305200,12769,144,6
22328096,36,676,6
22347852,2809,4,6
22367604,12996,169,6
22390484,3844,361,6
22412336,8100,900,6
22434168,7396,441,6
22456000,2209,361,6
22477852,5329,25,6
22498656,6561,169,6
22520484,961,256,6
22541292,256,729,6
22562104,4,0,6
22578732,4,4,6
22595372,676,144,6
22616180,1369,1,6
22635928,21025,81,6
22657752,4096,900,6
22679608,6084,1600,6
22702492,10000,225,6
22725356,2025,484,6
22747196,100,0,6
22765920,400,81,6
22785684,3844,25,6
22806484,7056,324,6
22828316,14884,400,6
22851200,0,256,6
22869908,15376,2025,6
22893848,1849,3249,6
22916720,8836,1,6
22936480,9,576,6
22955220,484,25,6
22974968,16384,0,6
22995772,10404,1296,6
23019680,2916,676,6
23041544,3249,25,6
23062320,49,64,6
23081060,100,4,6
23099768,169,64,6
23119528,225,25,6
23139276,1089,256,6
23161124,2304,25,6
23181924,289,484,6
23202724,3481,0,6
23222488,400,49,6
23242256,400,49,6
23262028,0,1,6
23278656,256,100,6
23299460,361,4,6
23318176,784,4,6
23336884,1764,256,6
23358748,3136,400,6
23380576,2500,289,6
23402396,5041,729,6
23424248,5476,529,6
23446088,3249,196,6
23467928,36,484,6
23487700,1521,324,6
23509528,361,25,6
23529292,4225,9,6
23549048,1849,576,6
23570900,4,289,6
23589632,1936,1,6
23609372,12321,121,6
23632252,1681,529,6
23654104,4,169,6
23672816,81,16,6
23691552,784,144,6
23712336,3844,169,6
23734160,4900,16,6
23754976,6241,529,6
23776816,1,729,6
23795528,2601,64,6
23816328,9,36,6
23834004,5776,1,6
23853764,10201,16,6
23875608,3249,1296,6
23898488,17161,16,6
23920328,4225,1936,6
23943220,64,400,6
23962992,1024,9,6
23982728,961,121,6
24003520,49,169,6
24023292,2304,529,6
24045128,5929,289,6
24066964,7056,961,6
24088816,14161,81,6
24110648,29929,400,6
24133524,1089,1681,6
24156416,0,400,6
24175132,8993,784,6
24196960,7744,2401,6
24219840,6400,1521,6
24242732,81,25,6
24261456,484,16,6
24281200,3600,484,6
24303052,3844,1,6
24322812,900,576,6
24343616,576,49,6
24363376,4,100,6
24382092,400,169,6
24402872,12544,25,6
24424736,17689,1,6
24445520,6561,900,6
24467368,225,289,6
24488180,9,1,6
24504816,6561,49,6
24525612,2116,324,6
24547464,9,144,6
24566184,196,0,6
24584892,225,9,6
24603608,784,16,6
24623388,1225,144,6
24645216,49,36,6
24663940,1936,4,6
24683696,1444,16,6
24704496,1225,81,6
24725284,1600,100,6
24747140,784,49,6
24766880,1089,49,6
24787692,961,1,6
24806416,1600,100,6
24828248,4761,0,6
24848004,900,484,6
24868804,2704,169,6
24890648,9409,16,6
24911444,10201,324,6
24934312,441,676,6
24955136,49,324,6
24974896,81,16,6
24993616,4489,9,6
25013380,196,36,6
25033128,7569,256,6
25054960,13456,196,6
25077856,1089,1369,6
25100724,13924,64,6
25122568,11881,256,6
25145464,961,841,6
25166264,1,324,6
25184980,144,100,6
25205788,25,0,6
25223460,961,100,6
25244264,36,16,6
25262968,2025,81,6
25283784,529,81,6
25303532,121,25,6
25323300,81,100,6
25343052,361,0,6
25361776,1444,25,6
25382564,1936,144,6
25404396,3025,121,6
25426260,484,25,6
25445996,2304,144,6
25467840,20449,1,6
25488644,0,784,6
25507368,18769,1444,6
25531276,11664,961,6
25554180,0,676,6
25572896,27556,1521,6
25596796,1024,2025,6
25619700,1,225,6
25638420,676,1,6
25657128,5041,196,6
25678972,400,169,6
25699768,3600,144,6
25721616,784,9,6
25740332,144,81,6
25760100,900,0,6
25778812,529,16,6
25798556,144,25,6
25818332,36,4,6
25836008,1849,4,6
25855784,1521,49,6
25876572,256,196,6
25897380,2209,25,6
25918160,961,81,6
25937928,81,289,6
25957704,4,1,6
25974320,676,25,6
25994084,5625,49,6
26014892,676,144,6
26035684,2304,169,6
26057532,16,16,6
26076260,64,36,6
26094976,2116,1,6
26114724,9409,81,6
26135516,9025,289,6
26157364,1369,256,6
26179200,121,324,6
26199996,3600,256,6
26221864,2601,1,6
26241596,729,289,6
26262412,9,9,6
26279068,324,81,6
26298824,49,100,6
26318568,36,0,6
26336236,2025,81,6
26357064,441,16,6
26376816,1024,144,6
26398660,729,36,6
26418420,64,64,6
26437136,289,16,6
26456900,49,9,6
26474572,361,16,6
26494348,441,16,6
26514080,1156,81,6
26534884,9801,4,6
26554656,7921,576,6
26576496,841,676,6
26597292,196,196,6
26618108,81,225,6
26637868,400,144,6
26658640,1764,4,6
26678412,576,121,6
26699208,324,49,6
26718984,324,4,6
26737692,81,1,6
26755372,64,25,6
26774084,1156,9,6
26793840,1024,4,6
26813612,4624,25,6
26834412,4356,625,6
26856240,4761,400,6
26878104,49,81,6
26896824,361,225,6
26917600,169,16,6
26937368,2116,25,6
26958180,9,1,6
26974820,1681,49,6
26995604,169,25,6
27015376,400,81,6
27035124,841,4,6
27053860,841,16,6
27073600,361,49,6
27093376,676,64,6
27113136,100,16,6
27132880,1849,9,6
27152652,2401,4,6
27172420,2704,289,6
27194240,196,225,6
27215060,729,49,6
27234808,529,36,6
27254568,2401,121,6
27276424,1444,25,6
27297208,1764,81,6
27318008,196,64,6
27337788,169,196,6
27358584,1849,0,6
27378328,2116,121,6
27400172,9,64,6
27417864,169,16,6
27437612,144,0,6
27456336,64,9,6
27474020,196,9,6
27492740,25,0,6
27510420,81,0,6
27528100,121,1,6
27546832,361,4,6
27565544,1,0,6
27582188,400,9,6
27600888,2704,64,6
27621704,1600,36,6
27642504,256,225,6
27663272,5776,81,6
27684092,2304,169,6
27705936,3136,289,6
27727756,0,144,6
27746476,23716,1089,6
27770400,7569,2704,6
27793288,27225,0,6
27814092,324,1296,6
27835920,841,0,6
27854648,20736,9,6
27875428,400,1764,6
27897272,14400,361,6
27920156,15876,1521,6
27944092,13924,64,6
27965916,14161,36,6
27987764,0,961,6
28006492,21025,2116,6
28030396,19881,3364,6
28054324,1156,64,6
28075128,6084,961,6
28096972,484,256,6
28117764,3721,841,6
28139628,729,9,6
28158336,400,729,6
28179124,441,100,6
28199920,21025,144,6
28222808,32761,1225,6
28246720,5329,1936,6
28269612,225,225,6
28290408,1444,121,6
28312248,3136,400,6
28334092,11449,1,6
28354876,17689,121,6
28377760,1369,2025,6
28400628,3364,576,6
28422488,3600,256,6
28444336,2500,36,6
28465120,841,0,6
28483848,49,361,6
28503612,676,4,6
28522332,49,324,6
28542100,5776,1,6
28561840,13924,169,6
28584732,5041,64,6
28605540,729,256,6
28626336,961,25,6
28646096,1849,324,6
28667944,6400,1,6
28687684,4356,441,6
28709548,1681,121,6
28731372,1,9,6
28748016,484,121,6
28768808,441,25,6
28788568,3249,81,6
28809368,17161,400,6
28832244,29584,841,6
28855120,24336,1024,6
28879040,32041,1764,6
28902964,0,1936,6
28922712,0,2401,6
28942500,9801,1936,6
28965368,64,1089,6
28986180,784,16,6
29005944,256,169,6
29026740,441,9,6
29045448,1521,1,6
29065204,256,16,6
29084988,324,100,6
29105772,625,16,6
29125532,36,25,6
29144248,484,49,6
29164020,1296,1,6
29183764,9604,49,6
29204576,22201,81,6
29226412,10000,1936,6
29250324,10609,1089,6
29274240,9,256,6
29292964,9,729,6
29311688,576,0,6
29330412,3136,36,6
29351220,12544,16,6
29373036,0,1,6
29389692,17956,1600,6
29413612,1296,1600,6
29436480,1024,16,6
29457284,3969,4,6
29477044,529,361,6
29497844,169,196,6
29518644,1681,0,6
29538428,9409,1,6
29558168,484,529,6
29578964,2304,1600,6
29601852,1156,4,6
29621612,7396,256,6
29643440,23409,0,6
29664240,32041,961,6
29687128,3481,2209,6
29710012,2025,441,6
29731860,1225,1,6
29751628,1296,0,6
29771372,961,100,6
29792148,6561,324,6
29814020,1521,256,6
29835864,441,484,6
29856660,36,100,6
29876408,1,1,6
29893048,2704,64,6
29913860,1296,0,6
29933616,2025,100,6
29955456,6241,289,6
29977268,441,196,6
29998096,2116,144,6
30019932,2916,1,6
30039684,529,144,6
30060476,1,100,1
30079208,1156,25,1
30100020,1600,9,1
30119756,3025,289,1
30141624,3721,225,1
30163456,529,100,1
30184260,7396,49,1
30205052,30276,196,1
30227924,28224,1521,1
30251840,18769,1764,1
30275768,0,1024,1
30295532,2916,441,1
30317380,1936,169,1
30339208,8100,196,1
30361052,2500,225,1
30382884,6400,1296,1
30405772,17956,676,1
30428648,169,900,1
30449464,1369,484,1
30471296,1444,144,1
30493128,13689,64,1
30514960,8281,529,1
30536796,6561,676,1
30558652,5329,64,1
30579448,576,625,1
30600256,18496,4,1
30621056,17424,484,1
30643916,3136,2116,1
30666804,5329,36,1
30687620,12996,16,1
30709456,1,144,1
30728164,529,529,1
30748972,1369,4,1
30768736,4225,25,1
30789528,9,289,1
30808256,3721,144,1
30830096,4225,64,1
30850900,2304,81,1
30871700,100,36,1
30891452,0,144,1
30910172,676,0,1
30928892,676,49,1
30948660,121,4,1
30967372,121,16,1
30987136,529,4,1
31005868,841,36,1
31025616,121,144,1
31046420,49,36,1
31065144,1,1,1
31081776,1369,16,1
31102580,2809,1,1
31122332,841,49,1
31142104,25,25,1
31160820,4,1,1
31177460,81,4,1
31195140,36,4,1
31212812,16,25,1
31231532,1,1,1
31248172,0,0,1
31264828,16,4,1
31282500,64,1,1
31300180,36,9,1
31317860,4,9,1
31334508,9,4,1
31351148,0,0,1
31367788,25,4,1
31385456,0,9,1
31402100,16,0,1
31419792,0,1,1
31436428,64,0,1
31454108,25,1,1
31471784,100,0,1
31490492,100,0,1
31509212,841,0,1
31527916,225,16,1
31547700,1,16,1
31565368,100,0,1
31584092,169,0,1
31602828,4,1,1
31619464,1,4,1
31636104,9,0,1
31652740,25,4,1
31670416,1,36,1
31688108,16,1,1
31705776,36,4,1
31723448,81,4,1
31741152,121,9,1
31759860,4,16,1
31777540,4,4,1
31794160,196,0,1
31812908,0,25,1
31830576,49,16,1
31849288,9,16,1
31866988,25,1,1
31884668,225,4,1
31903376,81,0,1
31921052,9,9,1
31937696,16,9,1
31955376,0,1,1
31972012,25,0,1
31989696,1,0,1
32006340,49,0,1
32024012,81,0,1
32041700,0,1,1
32058332,49,1,1
32076028,0,1,1
32092652,4,0,1
32109304,9,1,1
32125936,25,0,1
32143624,1,4,1
32160256,4,0,1
32176900,64,1,1
32194580,144,0,1
32213308,64,9,1
32230988,196,16,1
32250740,1024,1,1
32270504,225,49,1
32290260,9,25,1
32307928,4,0,1
32324576,81,0,1
32342260,196,1,1
32360976,25,25,1
32379696,9,9,1
32396340,25,0,1
32414024,4,1,1
32430656,0,4,1
32447300,9,1,1
32463936,0,0,1
32480576,36,0,1
32498256,16,1,1
32515940,25,0,1
32533628,1,1,1
32550268,225,0,1
32568980,49,9,1
32586656,36,9,1
32604348,9,1,1
32620980,9,0,1
32637620,4,1,1
32654240,64,0,1
32671956,324,1,1
32690660,144,1,1
32709372,36,4,1
32727064,100,1,1
32745780,1,4,1
32762420,0,0,1
32779056,25,1,1
32796736,81,0,1
32814428,81,1,1
32832100,4,4,1
32848744,1,1,1
32865392,9,4,1
32882024,1,0,1
32898652,0,0,1
32915296,16,1,1
32932980,36,0,1
32950672,25,9,1
32968340,256,0,1
32987048,64,16,1
33005788,1,1,1
33022420,4,1,1
33039056,16,0,1
33056732,49,0,1
33074428,25,0,1
33092096,0,4,1
33108740,0,0,1
33125372,16,1,1
33143068,25,1,1
33160748,0,4,1
33177380,16,0,1
33195068,25,1,1
33212740,4,0,1
33229376,49,0,1
33247048,0,0,1
33263700,1,1,1
33280344,36,0,1
33298020,16,1,1
33315692,25,0,1
33333388,4,4,1
33350016,0,0,1
33366648,0,0,1
33383292,1,1,1
33399948,4,1,1
33416592,36,4,1
33434260,121,1,1
33452972,256,9,1
33471700,36,9,1
33489380,36,9,1
33507060,49,0,1
33524740,9,9,1
33541380,0,1,1
33558004,49,0,1
33575696,36,1,1
33593392,81,1,1
33611068,196,1,1
33629784,289,9,1
33648504,529,1,1
33667228,144,9,1
33685936,49,16,1
33704664,1,0,1
33721292,100,1,1
33740012,81,0,1
33757700,16,4,1
33775388,4,1,1
33792012,49,0,1
33809696,9,0,1
33826348,0,0,1
33842980,4,0,1
33859632,1,0,1
33876264,0,0,1
33892908,4,0,1
33909528,9,0,1
33926184,25,1,1
33943868,4,0,1
33960496,0,1,1
33977148,49,1,1
33994832,0,1,1
34011468,196,4,1
34030180,361,1,1
34048888,121,25,1
34068660,0,4,1
34085304,25,0,1
34102988,196,0,1
34121680,100,4,1
34140420,16,4,1
34158108,1,1,1
34174728,1,0,1
34191376,25,0,1
34209068,169,0,1
34227780,25,9,1
34245456,0,9,1
34262096,1,0,1
34278744,49,0,1
34296424,324,1,1
34315140,25,9,1
34332820,9,9,1
34349464,225,0,1
34368180,169,0,1
34386892,36,1,1
34404572,121,0,1
34423308,225,1,1
34442020,49,9,1
34459712,1,1,1
34476340,16,0,1
34494016,121,1,1
34512736,36,4,1
34530416,0,0,1
34547056,25,0,1
34564740,289,1,1
34583452,400,4,1
34602188,121,16,1
34621932,361,25,1
34641700,841,9,1
34660420,100,36,1
34680188,4,36,1
34697856,4,1,1
34714508,9,0,1
34731152,49,1,1
34748820,36,4,1
34766500,25,9,1
34784168,144,0,1
34802900,144,4,1
34821612,64,0,1
34839300,324,1,1
34858036,16,4,1
34875704,121,9,1
34894424,64,16,1
34913140,169,9,1
34931864,169,0,1
34950588,169,16,1
34970340,4,16,1
34988008,25,1,1
35005696,1,0,1
35022328,0,0,1
35038972,1,0,1
35055620,49,1,1
35073304,1,0,1
35089940,256,1,1
35108648,25,0,1
35126336,0,9,1
35142992,9,0,1
35159616,4,0,1
35176260,16,1,1
35193936,16,0,1
35211632,9,1,1
35228260,36,4,1
35245948,64,1,1
35263628,9,4,1
35280272,9,4,1
35296896,36,0,1
35314584,64,9,1
35332268,225,1,1
35350984,0,1,1
35367616,16,0,1
35385292,0,0,1
35401948,25,1,1
35419620,9,0,1
35436252,16,0,1
35453932,16,0,1
35471632,9,0,1
35488248,36,0,1
35505940,100,0,1
35524656,64,4,1
35542340,4,1,1
35558976,25,4,1
35576656,49,1,1
35594344,121,1,1
35613068,576,0,1
35631768,324,4,1
35650484,0,36,1
35668176,25,1,1
35685860,1,4,1
35702488,4,0,1
35719132,16,0,1
35736816,81,1,1
35754496,169,1,1
35773216,49,9,1
35790900,25,4,1
35808580,25,0,1
35826260,9,4,1
35842900,1,4,1
35859536,0,0,1
35876188,16,1,1
35893856,16,1,1
35911544,16,9,1
35929220,64,0,1
35946900,0,1,1
35963540,9,0,1
35980176,81,0,1
35997856,9,4,1
36014496,0,0,1
36031144,1,1,1
36047772,9,0,1
36064420,4,0,1
36081068,49,1,1
36098736,4,1,1
36115372,1,4,1
36132024,36,1,1
36149700,196,0,1
36168420,25,1,1
36186084,4,4,1
36202748,16,0,1
36220416,0,0,1
36237056,4,4,1
36253692,9,0,1
36270336,0,0,1
36286968,49,4,1
36304656,81,4,1
36322356,9,4,1
36338988,25,0,1
36356652,25,1,1
36374344,4,0,1
36390988,49,1,1
36408660,169,0,1
36427384,9,4,1
36444028,16,16,1
36462748,49,1,1
36480420,144,1,1
36499144,1,9,1
36515772,4,0,1
36532428,0,4,1
36549052,4,0,1
36565692,25,0,1
36583376,81,4,1
36601064,81,0,1
36618748,36,1,1
36636416,36,9,1
36654096,64,0,1
36671780,16,9,1
36689460,121,0,1
36708172,225,0,1
36726904,169,25,1
36746664,0,9,1
36763292,144,0,1
36782016,225,0,1
36800736,64,4,1
36818416,0,16,1
36836096,196,0,1
36854828,324,9,1
36873548,121,4,1
36892256,225,1,1
36910988,196,9,1
36929704,25,9,1
36947372,36,0,1
36965064,81,1,1
36982724,169,0,1
37001464,441,9,1
37020184,289,16,1
37039940,289,16,1
37059696,361,4,1
37078424,196,16,1
37098172,25,25,1
37116904,1,4,1
37133548,81,1,1
37151220,64,0,1
37168896,9,9,1
37185536,4,1,1
37202188,121,4,1
37220904,4,4,1
37237532,4,4,1
37254180,16,4,1
37271856,100,0,1
37290576,64,16,1
37309304,16,1,1
37326976,81,0,1
37344664,16,16,1
37363376,0,4,1
37380016,36,1,1
37397696,9,1,1
37414344,36,16,1
37433056,100,0,1
37451772,169,1,1
37470504,784,4,1
37489220,225,64,1
37508980,25,81,1
37527716,81,1,1
37545384,169,1,1
37564092,4,1,1
37580728,0,16,1
37598428,25,0,1
37616100,441,1,1
37634820,484,9,1
37653536,81,36,1
37672268,0,4,1
37688900,36,0,1
37706572,64,1,1
37724264,36,4,1
37741948,4,4,1
37758580,1,0,1
37775220,1,1,1
37791860,9,4,1
37808508,144,0,1
37827216,256,1,1
37845932,25,1,1
37863616,4,1,1
37880264,100,0,1
37898972,676,0,1
37917708,400,9,1
37936420,36,25,1
37955128,25,4,1
37972820,64,0,1
37990504,16,0,1
38008180,25,0,1
38025860,25,0,1
38043544,121,1,1
38062272,81,9,1
38079936,196,1,1
38098652,121,1,1
38117380,64,9,1
38135068,225,1,1
38153780,576,1,1
38172500,529,25,1
38192256,49,25,1
38210992,25,4,1
38228652,361,0,1
38247376,625,9,1
38266096,289,16,1
38285868,1,16,1
38303536,361,4,1
38322260,729,4,1
38340988,169,36,1
38360740,4,25,1
38378412,64,0,1
38396104,9,1,1
38412740,81,9,1
38430420,100,1,1
38449128,9,4,1
38465776,0,0,1
38482420,0,1,1
38499064,169,1,1
38517780,324,1,1
38536496,1,25,1
38554176,16,16,1
38572912,0,1,1
38589536,25,0,1
38607228,49,9,1
38624900,9,1,1
38641536,0,0,1
38658176,36,0,1
38675860,49,1,1
38693532,81,0,1
38711220,25,4,1
38728900,1,4,1
38745548,16,1,1
38763216,121,0,1
38781932,16,9,1
38799620,16,1,1
38817304,49,1,1
38834980,4,0,1
38851628,1,1,1
38868268,0,1,1
38884908,49,1,1
38902576,64,0,1
38920272,4,1,1
38936908,9,0,1
38953540,49,0,1
38971228,25,0,1
38988904,16,4,1
39006588,100,0,1
39025308,4,4,1
39041940,289,0,1
39060656,144,16,1
39080412,9,9,1
39097048,4,0,1
39113692,1,1,1
39130336,0,0,1
39146976,9,4,1
39163616,81,0,1
39181296,169,0,1
39200016,16,9,1
39217704,49,4,1
39235372,81,1,1
39253068,4,4,1
39269700,1,0,1
39286336,1,1,1
39302984,1,1,1
39319620,100,0,1
39338352,36,4,1
39356020,25,4,1
39373696,81,1,1
39391380,16,4,1
39409060,4,4,1
39425692,81,0,1
39443368,36,1,1
39461068,49,4,1
39478740,16,1,1
39496416,9,9,1
39513052,9,1,1
39529708,9,1,1
39546336,16,4,1
39564020,4,4,1
39580656,4,9,1
39597312,25,1,1
39614980,25,0,1
39632660,9,9,1
39649308,4,1,1
39665952,25,9,1
39683632,169,1,1
39702340,100,9,1
39721056,49,36,1
39739780,9,0,1
39756428,0,0,1
39773068,64,1,1
39790748,1,0,1
39807376,16,0,1
39825060,4,0,1
39841688,4,0,1
39858336,49,0,1
39876008,64,0,1
39893704,9,1,1
39910344,16,9,1
39928028,4,0,1
39944660,36,0,1
39962340,100,4,1
39981068,1,1,1
39997696,16,0,1
40015384,0,0,1
40032016,0,0,1
40048668,9,1,1
40065296,0,0,2
40081940,49,0,2
40099620,64,1,2
40117296,9,1,2
40133936,0,0,2
40150580,64,1,2
40168260,64,1,2
40185940,9,16,2
40203628,25,1,2
40221300,1,4,2
40237932,0,0,2
40254588,4,1,2
40271220,9,0,2
40287852,36,0,2
40305540,196,1,2
40324272,1,9,2
40340904,81,9,2
40358580,16,0,2
40376252,81,4,2
40393948,256,1,2
40412664,36,1,2
40430340,1,9,2
40446968,4,0,2
40463616,81,1,2
40481308,225,0,2
40500008,25,16,2
40518740,1,4,2
40535380,1,0,2
40552008,0,0,2
40568672,9,1,2
40585320,1,1,2
40601948,16,1,2
40619620,144,0,2
40638340,169,0,2
40657060,64,1,2
40674740,36,4,2
40692412,1,0,2
40709044,0,0,2
40725696,0,1,2
40742336,36,4,2
40760020,4,0,2
40776656,36,1,2
40794348,169,0,2
40813060,49,4,2
40830740,16,1,2
40848424,25,0,2
40866108,1,9,2
40882744,81,1,2
40900416,225,0,2
40919144,1,9,2
40935788,1,4,2
40952416,16,1,2
40970100,0,0,2
40986736,9,0,2
41003380,1,1,2
41020012,0,0,2
41036656,4,0,2
41053300,9,0,2
41069944,0,1,2
41086568,49,0,2
41104256,225,1,2
41122972,64,16,2
41141688,1,4,2
41158332,1,0,2
41174964,0,0,2
41191632,9,0,2
41208256,9,4,2
41224888,0,0,2
41241532,4,4,2
41258184,9,0,2
41274828,196,0,2
41293540,289,9,2
41312252,4,9,2
41328900,9,0,2
41345536,1,0,2
41362176,0,1,2
41378816,36,0,2
41396504,36,0,2
41414188,1,9,2
41430820,9,0,2
41447456,0,1,2
41464104,25,4,2
41481776,16,0,2
41499456,9,9,2
41516112,81,1,2
41533780,49,0,2
41551460,4,4,2
41568092,25,0,2
41585780,36,0,2
41603464,25,9,2
41621136,36,1,2
41638812,4,0,2
41655464,4,1,2
41672112,196,1,2
41690824,361,1,2
41709532,25,9,2
41727220,1,4,2
41743864,4,0,2
41760492,36,0,2
41778184,9,9,2
41794828,1,1,2
41811456,9,0,2
41828096,64,0,2
41845788,9,1,2
41862412,0,4,2
41879060,49,0,2
41896728,121,0,2
41915456,16,0,2
41933136,25,4,2
41950824,225,1,2
41969540,169,4,2
41988260,64,16,2
42006976,144,9,2
42025700,196,4,2
42044400,100,16,2
42064184,25,9,2
42081856,0,0,2
42098500,9,0,2
42115148,1,0,2
42131784,0,1,2
42148420,16,0,2
42166100,64,0,2
42183780,49,4,2
42201460,1,1,2
42218088,16,1,2
42235772,0,0,2
42252416,36,0,2
42270108,81,0,2
42287768,0,1,2
42304408,4,0,2
42321068,9,1,2
42337700,9,0,2
42354344,9,0,2
42370976,49,1,2
42388660,16,0,2
42406336,4,4,2
42422972,9,0,2
42439616,36,0,2
42457304,16,0,2
42474984,25,4,2
42492660,16,0,2
42510336,1,9,2
42526976,4,0,2
42543612,1,4,2
42560260,0,0,2
42576892,1,0,2
42593540,4,4,2
42610180,0,0,2
42626812,4,0,2
42643444,25,1,2
42661144,36,1,2
42678828,0,1,2
42695460,9,0,2
42712108,9,0,2
42728740,25,0,2
42746420,1,0,2
42763056,49,4,2
42780736,49,1,2
42798424,121,9,2
42817136,49,1,2
42834820,9,9,2
42851468,0,4,2
42868100,4,0,2
42884740,4,0,2
42901368,49,1,2
42919064,81,0,2
42936744,0,4,2
42953376,0,0,2
42970016,64,0,2
42987696,25,4,2
43005368,16,4,2
43023060,36,0,2
43040736,9,1,2
43057388,4,4,2
43074020,1,0,2
43090660,16,0,2
43108332,256,0,2
43127064,25,4,2
43144744,64,9,2
43162408,100,0,2
43181136,25,9,2
43198828,1,4,2
43215456,1,4,2
43232104,1,1,2
43248740,9,1,2
43265384,9,1,2
43282020,25,0,2
43299700,36,0,2
43317384,1,1,2
43334028,4,1,2
43350656,9,0,2
43367288,36,1,2
43384988,49,1,2
43402668,4,1,2
43419300,0,1,2
43435932,16,0,2
43453628,49,0,2
43471296,4,1,2
43487936,0,1,2
43504564,1,0,2
43521220,1,0,2
43537860,1,0,2
43554504,1,1,2
43571140,1,0,2
43587780,4,0,2
43604412,9,0,2
43621060,0,0,2
43637684,49,0,2
43655380,169,0,2
43674096,121,4,2
43692820,196,9,2
43711552,196,9,2
43730272,25,16,2
43748976,1,9,2
43765612,4,1,2
43782260,36,1,2
43799948,4,4,2
43816576,9,1,2
43833212,4,0,2
43849872,0,0,2
43866512,9,0,2
43883136,64,0,2
43900820,1,1,2
43917468,25,4,2
43935144,36,1,2
43952816,16,1,2
43970492,0,0,2
43987148,4,4,2
44003776,0,1,2
44020412,1,0,2
44037044,36,0,2
44054748,36,1,2
44072420,4,0,2
44089060,0,0,2
44105696,16,1,2
44123380,4,0,2
44140008,25,0,2
44157696,36,4,2
44175388,81,1,2
44193072,1,4,2
44209708,25,4,2
44227376,9,1,2
44244012,36,4,2
44261700,81,0,2
44279368,100,4,2
44298100,121,4,2
44316828,4,1,2
44333464,36,0,2
44351144,9,0,2
44367780,16,4,2
44385460,121,0,2
44404180,16,4,2
44421856,16,1,2
44439536,9,1,2
44456192,1,1,2
44472820,0,0,2
44489456,25,0,2
44507132,36,1,2
44524828,25,0,2
44542508,16,1,2
44560180,0,4,2
44576832,1,1,2
44593468,25,0,2
44611136,64,0,2
44628820,25,1,2
44646508,0,0,2
44663132,9,0,2
44679780,1,0,2
44696412,1,0,2
44713056,1,1,2
44729704,9,1,2
44746332,9,0,2
44762988,1,0,2
44779632,100,1,2
44798348,9,1,2
44814968,4,9,2
44831612,16,1,2
44849300,25,1,2
44866988,9,1,2
44883620,36,4,2
44901296,0,0,2
44917936,64,0,2
44935620,25,4,2
44953312,9,1,2
44969932,36,0,2
44987624,1,0,2
45004256,4,0,2
45020896,0,9,2
45037540,64,0,2
45055228,36,9,2
45072896,16,1,2
45090580,25,0,2
45108260,4,0,2
45124900,144,0,2
45143616,144,1,2
45162336,64,4,2
45180032,121,1,2
45198740,100,0,2
45217464,1,4,2
45234092,49,4,2
45251784,25,1,2
45269456,16,1,2
45287132,36,0,2
45304816,4,1,2
45321464,25,1,2
45339136,16,1,2
45356820,36,1,2
45374504,36,0,2
45392180,0,4,2
45408820,0,1,2
45425456,1,4,2
45442116,16,0,2
45459792,16,0,2
45477460,81,1,2
45495144,1,4,2
45511788,121,4,2
45530508,25,4,2
45548176,144,9,2
45566888,144,1,2
45585624,9,4,2
45602248,4,0,2
45618900,16,0,2
45636568,0,0,2
45653220,1,4,2
45669864,9,0,2
45686500,1,4,2
45703132,0,0,2
45719788,9,0,2
45736416,1,4,2
45753064,49,0,2
45770736,36,0,2
45788424,0,4,2
45805060,4,0,2
45821696,25,1,2
45839376,16,0,2
45857056,9,0,2
45873696,25,1,2
45891376,9,0,2
45908020,36,0,2
45925700,16,0,2
45943372,1,4,2
45960012,9,1,2
45976664,4,0,2
45993308,100,0,2
46012016,169,0,2
46030748,1,1,2
46047388,0,1,2
46064020,49,0,2
46081696,64,1,2
46099372,1,4,2
46116028,25,0,2
46133700,16,4,2
46151376,121,1,2
46170092,25,9,2
46187788,0,4,2
46204416,25,0,2
46222104,144,0,2
46240816,121,0,2
46259548,16,1,2
46277216,0,1,2
46293852,1,0,2
46310500,25,0,2
46328188,16,4,2
46345868,1,4,2
46362500,64,0,2
46380180,25,0,2
46397860,1,1,2
46414500,0,0,2
46431140,121,0,2
46449860,169,0,2
46468576,25,9,2
46486252,0,1,2
46502900,1,1,2
46519540,1,0,2
46536188,1,0,2
46552828,9,0,2
46569452,16,1,2
46587136,16,4,2
46604828,36,0,2
46622500,1,0,2
46639132,0,0,2
46655776,4,1,2
46672432,1,0,2
46689064,1,0,2
46705704,0,1,2
46722348,100,1,2
46741060,25,0,2
46758740,49,4,2
46776428,25,0,2
46794104,0,9,2
46810736,0,1,2
46827384,9,1,2
46844032,9,1,2
46860660,64,0,2
46878340,1,9,2
46894988,1,4,2
46911620,121,0,2
46930340,121,9,2
46949052,16,9,2
46966724,1,0,2
46983376,9,0,2
47000024,25,4,2
47017700,9,0,2
47034320,16,0,2
47052020,9,0,2
47068660,25,0,2
47086340,36,1,2
47104028,4,1,2
47120660,81,0,2
47138344,64,1,2
47156016,49,4,2
47173708,49,1,2
47191388,9,1,2
47208020,25,0,2
47225700,64,4,2
47243392,0,1,2
47260028,81,1,2
47277692,25,0,2
47295380,9,4,2
47312020,16,0,2
47329712,225,0,2
47348420,196,4,2
47367132,36,25,2
47385860,0,4,2
47402492,9,0,2
47419128,36,0,2
47436816,0,0,2
47453464,49,1,2
47471136,196,0,2
47489860,256,0,2
47508588,16,9,2
47526260,4,4,2
47542888,16,0,2
47560580,81,0,2
47578264,9,4,2
47594896,0,0,2
47611544,36,0,2
47629216,144,0,2
47647936,16,4,2
47665612,1,4,2
47682264,16,1,2
47699932,25,0,2
47717628,25,9,2
47735292,1,0,2
47751940,9,1,2
47768568,9,0,2
47785220,81,0,2
47802908,25,4,2
47820584,1,1,2
47837220,25,0,2
47854908,36,0,2
47872576,0,4,2
47889220,4,4,2
47905856,49,0,2
47923548,9,1,2
47940188,1,4,2
47956820,1,1,2
47973456,64,1,2
47991144,64,1,2
48008820,4,4,2
48025468,1,0,2
48042108,25,0,2
48059784,49,0,2
48077464,121,4,2
48096172,49,9,2
48113864,25,9,2
48131540,144,4,2
48150256,36,9,2
48167932,1,4,2
48184592,9,0,2
48201220,1,0,2
48217860,0,1,2
48234488,0,0,2
48251136,0,0,2
48267776,4,0,2
48284408,64,0,2
48302108,81,1,2
48319788,1,1,2
48336420,1,0,2
48353056,36,0,2
48370752,25,1,2
48388432,9,1,2
48405060,289,0,2
48423776,169,4,2
48442504,0,9,2
48459144,9,1,2
48475776,64,0,2
48493464,144,0,2
48512184,1,4,2
48528820,49,4,2
48546500,4,1,2
48563136,1,1,2
48579780,4,0,2
48596404,25,1,2
48614088,9,0,2
48630736,4,4,2
48647380,36,0,2
48665056,36,0,2
48682740,1,9,2
48699368,0,1,2
48716032,9,1,2
48732660,16,0,2
48750344,25,1,2
48768024,36,0,2
48785700,0,0,2
48802340,49,0,2
48820024,121,9,2
48838740,36,16,2
48857460,0,0,2
48874096,0,0,2
48890740,1,0,2
48907376,9,0,2
48924024,4,1,2
48940664,196,0,2
48959380,169,4,2
48978108,0,4,2
48994728,25,1,2
49012416,9,1,2
49029052,25,1,2
49046740,144,1,2
49065460,100,4,2
49084176,0,9,2
49100824,9,4,2
49117456,4,0,2
49134096,0,0,2
49150740,1,1,2
49167380,4,0,2
49184036,16,1,2
49201712,100,1,2
49220412,25,4,2
49238100,100,4,2
49256828,144,0,2
49275540,1,4,2
49292176,49,4,2
49309856,64,1,2
49327524,49,0,2
49345212,0,0,2
49361860,9,1,2
49378508,0,0,2
49395128,36,4,2
49412820,64,0,2
49430492,9,1,2
49447140,1,0,2
49463780,9,1,2
49480416,36,4,2
49498096,1,0,2
49514752,36,1,2
49532416,16,0,2
49550100,4,0,2
49566752,0,0,2
49583392,1,1,2
49600032,16,1,2
49617696,81,1,2
49635380,9,1,2
49652028,0,0,2
49668668,64,0,2
49686336,49,1,2
49704020,16,4,2
49721700,25,0,2
49739380,9,0,2
49756020,81,0,2
49773704,9,1,2
49790340,1,1,2
49806968,0,0,2
49823624,1,0,2
49840268,25,0,2
49857936,36,0,2
49875620,0,1,2
49892264,4,1,2
49908908,1,0,2
49925548,4,1,2
49942180,0,0,2
49958808,36,1,2
49976512,16,0,2
49994180,0,1,2
50010820,36,0,2
50028484,64,0,2
50046184,16,0,2
50063848,64,1,6
50081532,64,0,6
50099228,4,1,6
50115864,25,1,6
50133548,100,0,6
50152260,25,1,6
50169948,1,4,6
50186592,1,0,6
50203220,16,0,6
50220900,81,1,6
50238588,100,4,6
50257292,100,16,6
50277060,9,4,6
50293700,16,4,6
50311388,1,0,6
50328016,4,0,6
50344660,81,0,6
50362336,144,4,6
50381064,4,4,6
50397700,9,4,6
50414340,49,1,6
50432028,9,1,6
50448660,64,0,6
50466344,0,4,6
50482976,25,0,6
50500664,64,4,6
50518348,196,0,6
50537060,64,4,6
50554744,4,16,6
50572424,4,0,6
50589056,4,0,6
50605700,25,1,6
50623380,9,0,6
50640028,144,0,6
50658732,256,1,6
50677456,16,16,6
50696176,1,9,6
50712824,144,0,6
50731548,324,1,6
50750256,36,4,6
50767944,16,16,6
50786660,36,0,6
50804344,0,4,6
50820980,1,0,6
50837624,25,0,6
50855304,100,1,6
50874020,0,4,6
50890656,0,0,6
50907312,64,0,6
50924976,4,0,6
50941612,0,0,6
50958248,0,0,6
50974900,36,1,6
50992580,25,0,6
51010260,121,4,6
51028976,225,1,6
51047696,36,4,6
51065388,0,9,6
51082020,16,0,6
51099712,121,1,6
51118416,100,0,6
51137140,36,4,6
51154820,0,1,6
51171464,16,0,6
51189148,0,0,6
51205784,64,0,6
51223456,196,4,6
51242192,9,4,6
51258820,36,1,6
51276496,400,1,6
51295208,576,1,6
51313928,2809,36,6
51334728,7056,64,6
51355532,5776,324,6
51377360,81,324,6
51397136,2704,64,6
51417936,784,25,6
51437704,64,36,6
51456424,16,0,6
51474096,784,4,6
51492796,6084,4,6
51512580,1764,36,6
51533384,36,256,6
51553128,1369,4,6
51572896,4900,0,6
51592644,1764,225,6
51614488,81,100,6
51634256,484,1,6
51652972,15625,25,6
51674812,31329,529,6
51697684,26244,1296,6
51721608,21904,1936,6
51745524,11236,2025,6
51769452,4624,1024,6
51792316,5625,256,6
51814164,6724,256,6
51836008,900,784,6
51856800,18496,64,6
51878636,13924,625,6
51901540,3136,529,6
51923376,3249,64,6
51944176,7569,16,6
51964968,529,441,6
51985760,12996,225,6
52008648,18496,900,6
52031540,1681,1024,6
52054412,0,16,6
52072088,0,900,6
52090800,13225,1849,6
52114728,441,484,6
52135528,625,144,6
52156312,8100,25,6
52177128,289,196,6
52197932,12321,64,6
52219748,10201,289,6
52242660,16129,729,6
52265528,4225,324,6
52287364,4,1156,6
52307136,529,256,6
52327920,11025,9,6
52348736,0,4,6
52365364,15625,1600,6
52389284,7744,1225,6
52412164,3481,1,6
52431940,625,169,6
52452728,6400,324,6
52474568,4225,16,6
52495348,6400,196,6
52517216,6561,0,6
52536960,2401,1024,6
52559852,900,49,6
52579620,4096,289,6
52601440,8464,729,6
52623288,2704,1444,6
52646176,4489,25,6
52666972,14641,0,6
52687768,324,225,6
52708592,64,676,6
52728344,225,9,6
52747044,31329,144,6
52769932,0,441,6
52788640,5929,2916,6
52811524,1764,1225,6
52834408,2304,100,6
52856240,16641,361,6
52879124,8649,100,6
52900956,4624,961,6
52922828,26880,25,6
52944656,31329,2500,6
52968560,16384,2500,6
52992484,19881,196,6
53015380,841,2116,6
53037204,5329,169,6
53059048,27225,25,6
53080876,0,289,6
53099616,0,2704,6
53119376,6561,1296,6
53142220,0,225,6
53160968,0,16,6
53178648,0,1681,6
53198388,2116,225,6
53220244,25600,484,6
53243128,26244,121,6
53266016,576,1369,6
53287848,4,900,6
53306572,36,289,6
53326328,3025,1,6
53346088,9604,9,6
53365856,6084,676,6
53387668,16641,400,6
53410584,0,25,6
53428252,0,2025,6
53447996,5625,4761,6
53470880,17424,400,6
53493748,29584,529,6
53516652,1764,576,6
53538492,20164,225,6
53561368,28224,256,6
53584244,100,3025,6
53606088,8100,676,6
53627932,12544,841,6
53650812,10816,676,6
53673676,26244,676,6
53696560,0,2401,6
53716328,21316,2209,6
53740244,0,841,6
53758944,0,2116,6
53778724,14884,5184,6
53802644,49,1600,6
53823452,625,81,6
53843220,1089,256,6
53865044,6241,121,6
53886880,1024,49,6
53907696,4489,121,6
53929540,6400,64,6
53950324,49,961,6
53970096,400,49,6
53989844,3600,676,6
54011688,4489,1,6
54031452,6400,625,6
54053276,32761,121,6
54076168,14400,1296,6
54100092,7921,484,6
54121928,4900,324,6
54143768,2116,841,6
54165612,15876,1,6
54186404,16,1024,6
54207200,11025,49,6
54229052,625,400,6
54249852,361,25,6
54269600,7569,4,6
54289360,8100,961,6
54311220,5184,1024,6
54334084,100,196,6
54354876,196,400,6
54375688,2025,1,6
54395448,7921,576,6
54417292,484,196,6
54438080,961,25,6
54457848,1225,49,6
54478640,1296,289,6
54500500,729,0,6
54519228,729,144,6
54540012,2809,144,6
54561860,1444,0,6
54581624,196,484,6
54602412,3600,9,6
54622172,1521,289,6
54644020,1764,36,6
54664804,4356,81,6
54685596,81,1,6
54703292,6889,49,6
54724084,15376,169,6
54746960,17956,1089,6
54770892,576,784,6
54791684,1764,256,6
54813528,16900,4,6
54834336,31329,49,6
54856160,6084,2209,6
54879056,144,1296,6
54900888,484,169,6
54921684,11881,256,6
54944576,7396,81,6
54965376,8100,625,6
54987200,10609,49,6
55009036,2500,729,6
55030888,1,64,6
55048556,7921,0,6
55068316,8836,196,6
55090156,361,484,6
55110964,12996,36,6
55132800,21025,121,6
55155692,6889,2704,6
55178588,25,1156,6
55199380,2500,9,6
55219140,36,4,6
55236820,289,64,6
55256564,7569,49,6
55277364,10816,256,6
55300244,16129,625,6
55323124,0,484,6
55341848,29241,841,6
55364732,484,1369,6
55386568,15625,225,6
55409452,4225,324,6
55431308,256,289,6
55452092,4761,64,6
55472900,6889,1,6
55492652,5329,529,6
55514500,3481,81,6
55535296,484,1089,6
55557140,961,81,6
55576900,1,16,6
55594560,1764,121,6
55616412,676,9,6
55635136,3249,4,6
55654900,5625,25,6
55675696,3025,289,6
55697528,7569,324,6
55719352,17161,81,6
55741196,12100,576,6
55764108,2601,1444,6
55786960,1936,484,6
55808804,2916,400,6
55830656,10404,1089,6
55854576,1296,576,6
55876408,10404,169,6
55899292,225,49,6
55919052,19044,324,6
55941924,1545,576,6
55963768,0,2601,6
55983524,10816,1936,6
56007444,14641,484,6
56030316,2025,324,6
56052156,121,576,6
56072960,7225,4,6
56092732,13456,49,6
56114560,841,676,6
56135372,196,625,6
56156168,6084,36,6
56176960,1600,196,6
56198800,4761,225,6
56220648,19600,1,6
56241452,2916,484,6
56263292,2809,1089,6
56286156,529,49,6
56305920,2601,49,6
56326724,400,225,6
56347528,16,4,6
56365204,441,196,6
56386008,484,25,6
56405776,961,0,6
56424508,1296,144,6
56446324,1369,16,6
56467124,19600,9,6
56487908,9409,1024,6
56510812,324,676,6
56531600,10201,36,6
56553452,17161,25,6
56575288,1156,81,6
56596076,1369,961,6
56617916,7744,49,6
56638748,1089,49,6
56659536,196,784,6
56680328,484,16,6
56700080,9216,16,6
56720888,1225,361,6
56742740,1225,169,6
56764588,6400,400,6
56786404,11881,196,6
56809284,7396,169,6
56831120,529,1296,6
56852964,4225,324,6
56874812,784,225,6
56895604,361,169,6
56916420,2500,16,6
56937196,29929,225,6
56960100,7569,625,6
56981932,1681,3364,6
57004796,4096,0,6
57024576,2401,4,6
57044332,441,900,6
57065136,121,25,6
57084892,1,9,6
57101528,2025,196,6
57123356,3364,81,6
57144160,3025,4,6
57163932,10201,196,6
57186820,2916,484,6
57208656,0,196,6
57227368,4624,9,6
57247128,2601,289,6
57268964,11664,729,6
57291844,19600,169,6
57314728,1849,1369,6
57337616,31329,16,6
57359452,23104,625,6
57382324,6400,529,6
57404164,169,784,6
57424976,1369,169,6
57446824,324,361,6
57467620,729,169,6
57488416,4761,16,6
57509216,21609,25,6
57531044,3249,144,6
57552888,10816,576,6
57575772,16129,0,6
57596560,256,729,6
57617360,1225,1225,6
57640252,3249,1,6
57660012,100,484,6
57680792,14641,529,6
57703696,11025,729,6
57726572,1089,1369,6
57749432,14884,16,6
57771296,7921,484,6
57793128,1521,289,6
57814972,441,400,6
57835788,36,121,6
57855536,4,16,6
57873220,400,4,6
57891920,1936,121,6
57913768,529,16,6
57933532,2704,1,6
57953296,4624,9,6
57973068,400,361,6
57993840,4624,324,6
58015672,11449,1,6
58036504,2704,529,6
58058328,400,676,6
58079140,289,0,6
58097864,2025,9,6
58117612,4,0,6
58134244,5776,144,6
58156100,6889,9,6
58175852,9,484,6
58194572,961,64,6
58214320,2500,25,6
58235140,18769,121,6
58258012,11449,961,6
58280880,2025,729,6
58302740,441,289,6
58323532,121,100,6
58344344,4,4,6
58360980,144,25,6
58380744,16,36,6
58399456,400,81,6
58419212,225,0,6
58437932,10404,25,6
58459776,13689,25,6
58481596,3969,1444,6
58504488,8100,484,6
58526324,5476,324,6
58548160,1225,1764,6
58571056,4,81,6
58588716,8100,196,6
58610568,5476,4,6
58630332,324,324,6
58651116,1444,169,6
58672968,4489,64,6
58693796,0,100,6
58712484,1369,121,6
58734336,49,121,6
58754088,2025,1,6
58773856,9,361,6
58792592,4,81,6
58810264,2025,9,6
58830020,3136,361,6
58851864,625,169,6
58872656,196,9,6
58891380,25,0,6
58909060,441,4,6
58927772,1936,4,6
58947524,1296,49,6
58968332,16,361,6
58988072,9216,0,6
59007856,15376,0,6
59028652,2209,1600,6
59051516,8100,576,6
59073368,2601,4,6
59093128,5476,961,6
59114964,27556,0,6
59135768,21025,2704,6
59159684,1024,1156,6
59182568,3844,16,6
59203388,169,25,6
59223136,5476,0,6
59242900,1444,100,6
59264724,7225,361,6
59286564,121,400,6
59307388,361,484,6
59328172,144,529,6
59348968,2209,64,6
59369768,4761,784,6
59391616,16,1,6
59409296,11664,9,6
59430092,4489,4,6
59449852,1764,1089,6
59472720,2209,81,6
59493524,25,400,6
59513284,9025,144,6
59535128,5041,100,6
59556984,1600,1764,6
59579852,484,0,6
59598568,4624,25,6
59619380,8649,441,6
59641224,2809,441,6
59663044,4,49,6
59680720,4624,225,6
59702580,3136,49,6
59723372,529,484,6
59744168,484,16,6
59763940,121,256,6
59784736,1225,49,6
59805528,3249,81,6
59826332,289,1,6
59845072,64,100,6
59864812,784,25,6
59884588,3136,9,6
59904328,4624,121,6
59926160,36,529,6
59945920,3025,25,6
59966724,4624,324,6
59988568,12321,225,6
60011432,1225,400,6
60033300,9,729,6
60052000,17689,4,4
60072804,21316,121,4
60095688,2116,3025,4
60118560,1521,625,4
60140420,15129,49,4
60162256,1600,0,4
60182008,529,144,4
60202804,529,25,4
60222568,8281,0,4
60242328,4,16,4
60259996,2401,196,4
60281844,3969,196,4
60303688,6084,49,4
60324480,3025,1444,4
60347356,14884,16,4
60369200,3844,784,4
60391040,7744,9,4
60410788,10609,225,4
60433684,289,3364,4
60455520,2704,169,4
60477356,0,784,4
60496092,1225,4,4
60515856,625,25,4
60535612,25,576,4
60555388,8836,16,4
60576164,0,676,4
60594888,0,529,4
60613592,16260,3025,4
60637532,11193,4356,4
60661440,29241,4225,4
60685376,9,3136,4
60705128,22201,1156,4
60729032,6400,49,4
60749840,5184,1296,4
60772708,0,64,4
60790396,29929,576,4
60813288,36,3136,4
60834088,729,100,4
60854884,3481,400,4
60876716,529,441,4
60897532,625,361,4
60918320,8464,400,4
60940172,7744,1,4
60959948,324,64,4
60979696,12544,784,4
61002564,0,144,4
61021296,3025,1849,4
61044184,9,2809,4
61063936,625,1,4
61082664,100,16,4
61102436,289,256,4
61123216,1600,4,4
61142976,1156,100,4
61164804,8649,16,4
61185620,0,64,4
61203292,8464,1089,4
61226164,0,1089,4
61245932,16,4,4
61263600,25,4,4
61281292,484,25,4
61301052,1369,144,4
61322896,36,729,4
61342644,121,289,4
61363460,9,36,4
61381136,81,36,4
61399860,484,121,4
61420660,49,144,4
61440416,16,0,4
61458092,0,16,4
61475768,4,0,4
61492428,1,1,4
61509060,64,4,4
61526736,25,25,4
61545456,4,4,4
61562104,81,0,4
61579780,25,49,4
61598496,9,16,4
61616188,0,1,4
61632820,121,0,4
61651540,256,9,4
61670252,729,9,4
61688984,1521,9,4
61708724,2209,36,4
61729524,1156,64,4
61750340,841,100,4
61771136,7056,81,4
61791936,3969,169,4
61813772,1024,841,4
61835632,900,81,4
61855376,441,100,4
61876164,169,529,4
61896976,289,1600,4
61918816,484,1024,4
61940652,400,441,4
61961456,49,144,4
61981220,25,16,4
61999936,36,9,4
62017616,25,196,4
62037380,100,256,4
62058172,64,289,4
62077928,0,0,4
62094568,36,3136,4
62115368,196,4356,4
62137220,64,64,4
62155936,4,81,4
62173608,49,1089,4
62194408,121,1764,4
62216256,4,2401,4
62236012,100,2209,4
62257852,196,2025,4
62279708,16,36,4
62298420,16,784,4
62318176,0,1024,4
62337944,9,2916,4
62357708,169,2209,4
62379548,49,169,4
62399300,36,1,4
62416988,16,1,4
62434660,100,676,4
62455444,484,2304,4
62477292,256,784,4
62498088,0,1024,4
62517852,49,4225,4
62538656,100,1089,4
62560504,49,0,4
62578180,4,81,4
62595852,1,289,4
62614584,4,1024,4
62634340,36,484,4
62654100,9,0,4
62670740,16,16,4
62689468,49,25,4
62708176,36,36,4
62726900,1,256,4
62745632,144,324,4
62766420,49,676,4
62786172,16,1849,4
62806972,25,2209,4
62827788,49,900,4
62847544,25,225,4
62867300,1,9,4
62883944,16,289,4
62903696,64,256,4
62923456,16,81,4
62942176,1,484,4
62960896,36,289,4
62980660,25,49,4
62999380,16,225,4
63019144,25,400,4
63038896,1,1024,4
63058652,0,676,4
63077376,4,4,4
63094024,0,25,4
63111708,9,225,4
63130416,25,169,4
63150184,16,49,4
63168904,4,4,4
63185548,4,25,4
63203216,1,4,4
63219860,4,25,4
63237548,121,1,4
63256256,36,16,4
63274972,4,144,4
63293704,16,256,4
63313456,16,576,4
63333216,4,225,4
63351940,4,81,4
63369616,0,81,4
63387300,0,9,4
63403936,0,1,4
63420588,1,9,4
63437228,1,0,4
63453868,0,1,4
63470496,1,9,4
63487144,16,25,4
63505864,9,1,4
63522496,1,25,4
63540172,4,4,4
63556824,0,36,4
63574500,4,289,4
63593220,81,289,4
63612992,49,169,4
63632728,16,529,4
63652488,1,2209,4
63672256,4,169,4
63690984,100,144,4
63711764,25,4,4
63729452,16,625,4
63749228,4,225,4
63767944,0,9,4
63784588,0,1,4
63801208,4,961,4
63819940,0,1089,4
63839684,0,289,4
63858412,49,900,4
63878188,25,676,4
63897944,4,16,4
63915612,4,121,4
63934348,9,256,4
63953056,225,1156,4
63974880,121,5184,4
63996744,100,4225,4
64018580,4,64,4
64036264,100,784,4
64057060,0,36,4
64074736,9,49,4
64092428,25,0,4
64110108,1,144,4
64128820,4,4,4
64145464,9,169,4
64164176,144,1600,4
64186008,100,784,4
64206800,9,0,4
64223460,1,36,4
64241140,0,0,4
64257784,1,49,4
64275444,9,49,4
64293136,4,64,4
64310824,1,81,4
64328492,1,16,4
64346188,0,100,4
64364904,1,400,4
64383612,4,324,4
64402344,9,49,4
64420028,0,25,4
64437700,9,0,4
64454336,0,256,4
64473056,25,64,4
64491784,0,36,4
64509464,0,81,4
64527144,0,196,4
64545864,9,729,4
64564588,1,100,4
64583296,9,1,4
64599932,0,361,4
64618660,25,144,4
64638420,9,36,4
64656100,49,36,4
64674824,9,25,4
64692500,4,324,4
64711208,4,144,4
64729932,4,36,4
64747624,9,1,4
64764264,4,0,4
64780896,9,169,4
64799616,81,169,4
64819380,0,16,4
64837052,4,16,4
64854740,36,25,4
64873444,9,169,4
64892188,1,4,4
64908816,0,64,4
64926504,0,1,4
64943152,9,441,4
64961860,0,225,4
64980576,0,64,4
64998260,16,121,4
65018020,4,16,4
65035700,9,81,4
65053380,4,400,4
65072096,81,441,4
65091872,81,961,4
65111620,144,1681,4
65133456,196,961,4
65154272,0,100,4
65172968,49,324,4
65192720,36,5041,4
65213528,289,5929,4
65235360,256,4489,4
65257216,36,5625,4
65278008,100,2601,4
65299852,169,4624,4
65321688,400,4761,4
65343544,256,81,4
65363304,0,64,4
65380976,9,1,4
65397624,121,400,4
65418420,81,289,4
65438184,16,16,4
65456896,1,9,4
65473532,0,36,4
65491232,9,729,4
65509920,25,961,4
65529692,16,289,4
65549464,16,256,4
65569216,1,36,4
65586908,9,225,4
65605612,25,1024,4
65626420,1,576,4
65645140,0,16,4
65662816,0,0,4
65679460,1,1,4
65696100,0,100,4
65714824,4,169,4
65733536,1,484,4
65752264,49,961,4
65772020,49,625,4
65791784,4,16,4
65809468,4,100,4
65828188,9,36,4
65845860,1,4,4
65862496,0,1,4
65879148,0,169,4
65897864,1,1764,4
65917608,25,1681,4
65938404,36,144,4
65958176,9,0,4
65974824,4,81,4
65992500,4,400,4
66011220,9,256,4
66029936,0,144,4
66048656,4,36,4
66066332,4,4,4
66082988,4,0,4
66099628,1,9,4
66116252,1,25,4
66133924,4,484,4
66152664,16,1764,4
66173464,81,64,4
66192172,0,100,4
66210912,0,169,4
66229624,0,144,4
66248340,16,9,4
66266016,16,49,4
66284736,0,361,4
66303464,36,1681,4
66324256,36,961,4
66344012,4,900,4
66362740,25,169,4
66382496,0,289,4
66401204,1,676,4
66419944,25,36,4
66438660,25,144,4
66458420,9,49,4
66476108,4,1,4
66492740,36,64,4
66511448,25,400,4
66531212,36,2304,4
66552024,25,324,4
66571788,64,16,4
66590492,25,9,4
66608184,4,289,4
66626888,1,625,4
66645624,9,900,4
66664340,36,16,4
66683064,0,9,4
66699700,1,4,4
66716328,4,576,4
66735056,9,324,4
66753788,16,256,4
66773552,1,169,4
66792252,4,324,4
66810984,64,1225,4
66831788,36,625,4
66851544,4,484,4
66870244,4,121,4
66888988,0,81,4
66906660,9,169,4
66925380,0,81,4
66943064,25,529,4
66962832,1,1,4
66979452,16,100,4
66999204,0,961,4
67017940,100,4096,4
67039780,64,1156,4
67060576,4,100,4
67079308,36,1156,4
67100092,81,729,4
67119852,36,196,4
67139616,0,225,4
67158348,1,25,4
67176020,1,169,4
67194732,0,256,4
67213472,0,9,4
67230112,1,4,4
67246728,16,16,4
67265448,4,49,4
67283136,4,81,4
67300820,1,121,4
67319536,1,1,4
67336180,4,144,4
67354912,9,169,4
67373616,0,16,4
67391288,0,81,4
67408976,0,0,4
67425620,0,100,4
67444348,4,144,4
67463060,16,0,4
67480748,4,25,4
67498416,0,1,4
67515052,1,9,4
67531684,1,36,4
67549380,0,196,4
67568100,4,324,4
67586820,16,49,4
67605552,1,4,4
67622184,0,1,4
67638824,0,64,4
67656496,1,25,4
67674180,0,49,4
67691876,1,16,4
67709532,0,36,4
67727216,0,196,4
67745944,4,361,4
67764656,4,25,4
67782340,0,4,4
67798972,0,16,4
67816668,9,841,4
67835368,64,900,4
67855132,9,169,4
67873864,0,16,4
67891528,16,1089,4
67912332,144,3136,4
67934164,121,400,4
67954980,0,25,4
67972672,0,196,4
67991376,1,196,4
68010116,16,1,4
68027784,0,0,4
68044408,4,100,4
68063132,9,144,4
68081872,4,36,4
68099536,0,169,4
68118252,1,81,4
68135932,4,324,4
68154672,0,64,4
68172340,49,169,4
68192112,1,16,4
68209788,1,9,4
68226428,1,289,4
68245140,4,400,4
68263860,1,64,4
68281556,1,100,4
68300264,4,1,4
68316904,1,4,4
68333536,1,81,4
68351224,25,64,4
68369948,1,36,4
68387616,36,529,4
68407380,1,484,4
68426108,1,81,4
68443776,4,25,4
68461460,1,49,4
68479148,0,9,4
68495776,4,36,4
68513456,0,81,4
68531132,0,16,4
68548808,4,169,4
68567544,9,3969,4
68587288,121,2025,4
68609144,16,0,4
68626828,0,169,4
68645536,16,16,4
68664256,1,16,4
68681940,25,289,4
68701680,4,1024,4
68721456,64,121,4
68741232,0,9,4
68757856,9,256,4
68776564,100,16,4
68796336,36,1764,4
68817136,100,1156,4
68838980,4,361,4
68857700,9,16,4
68875376,16,49,4
68894092,4,1024,4
68913856,1,100,4
68932572,36,1681,4
68953388,121,676,4
68974184,0,4,4
68990816,16,4,4
69008496,0,25,4
69026188,0,1,4
69042828,25,1,4
69060496,49,4,4
69078184,0,144,4
69096912,1,169,4
69115620,1,16,4
69133288,0,0,4
69149948,4,361,4
69168668,16,144,4
69188412,1,256,4
69207132,64,1089,4
69227940,64,324,4
69247704,1,0,4
69264336,0,36,4
69282028,25,49,4
69300728,100,324,4
69321540,4,361,4
69340264,16,676,4
69360032,49,225,4
69379784,4,36,4
69397452,9,9,4
69414100,1,841,4
69432812,9,400,4
69451540,4,4,4
69468192,9,1,4
69484820,1,100,4
69503548,1,36,4
69521216,4,225,4
69539932,0,2401,4
69559700,25,2304,4
69580492,36,121,4
69600252,4,0,4
69616900,0,1,4
69633548,4,256,4
69652256,64,144,4
69672032,4,0,4
69688668,4,4,4
69705288,0,81,4
69722968,4,1156,4
69742736,4,2209,4
69762500,9,484,4
69781212,4,144,4
69799920,4,49,4
69817616,4,0,4
69834264,0,49,4
69851936,0,196,4
69870660,0,81,4
69888340,1,16,4
69906012,1,36,4
69923692,0,0,4
69940340,0,64,4
69958032,1,9,4
69974664,4,81,4
69992336,4,16,4
70010016,0,4,4
70026668,4,25,4
70044344,4,64,4
70062016,16,36,6
70080752,1,16,6
70098420,0,16,6
70116100,1,1,6
70132740,1,9,6
70149380,0,144,6
70168100,4,81,6
70185772,0,16,6
70203468,0,25,6
70221144,4,9,6
70237784,1,100,6
70256496,1,4,6
70273136,0,36,6
70290824,1,81,6
70308500,1,81,6
70326168,16,144,6
70345940,16,49,6
70364660,0,4,6
70381296,4,81,6
70398972,0,576,6
70417708,0,196,6
70436420,0,36,6
70454092,1,324,6
70472816,0,81,6
70490496,16,0,6
70508168,4,1,6
70524808,0,0,6
70541456,1,9,6
70558104,1,25,6
70575784,9,169,6
70594484,9,169,6
70613220,0,0,6
70629852,16,49,6
70648580,0,1,6
70665212,25,16,6
70683948,0,0,6
70700588,1,16,6
70718252,1,36,6
70735940,0,25,6
70753632,9,441,6
70772340,1,256,6
70791056,0,64,6
70808748,1,16,6
70826416,9,576,6
70845136,1,36,6
70862804,36,400,6
70882580,16,400,6
70902348,0,64,6
70920020,0,81,6
70937708,4,9,6
70954336,4,36,6
70972012,0,9,6
70988660,9,144,6
71007380,4,9,6
71024032,4,49,6
71041700,0,9,6
71058332,1,16,6
71076020,1,16,6
71093704,1,1,6
71110336,0,4,6
71126960,0,4,6
71143620,4,36,6
71161296,4,81,6
71178972,0,81,6
71196656,1,1,6
71213312,1,9,6
71229940,1,4,6
71246580,1,121,6
71265300,1,16,6
71282980,1,25,6
71300660,1,0,6
71317300,0,0,6
71333944,0,1,6
71350576,1,0,6
71367220,4,9,6
71383860,4,1,6
71400504,1,36,6
71418192,0,256,6
71436888,1,16,6
71454580,1,0,6
71471228,4,0,6
71487860,1,256,6
71506580,36,441,6
71526332,0,81,6
71544028,49,0,6
71561692,1,289,6
71580420,25,784,6
71600180,81,225,6
71619956,1,4,6
71636588,0,121,6
71655300,1,4,6
71671944,1,0,6
71688588,1,1,6
71705208,0,0,6
71721856,36,1,6
71739548,9,4,6
71756180,4,4,6
71772820,4,4,6
71789452,25,9,6
71807144,81,9,6
71824804,36,81,6
71843544,256,16,6
71863288,0,9,6
71879928,1444,25,6
71900732,729,36,6
71920492,0,121,6
71939216,1444,4,6
71958976,2809,49,6
71979780,9,64,6
71997452,2401,49,6
72018268,1521,9,6
72038016,0,81,6
72055704,16,36,6
72074428,121,9,6
72093140,256,81,6
72112884,8464,64,6
72133696,20164,144,6
72156572,7744,1225,6
72179452,5476,900,6
72201300,36,64,6
72220012,9216,100,6
72241844,4,81,6
72259516,121,529,6
72280332,7569,121,6
72302176,18225,25,6
72324008,9025,1681,6
72346884,289,196,6
72367684,2809,0,6
72387452,4900,16,6
72408256,23104,36,6
72430104,14161,1521,6
72454004,784,1369,6
72475840,2500,0,6
72495604,2916,4,6
72515380,361,36,6
72535136,121,256,6
72555940,484,4,6
72574648,3969,4,6
72594400,3025,196,6
72616260,784,1369,6
72638088,3136,441,6
72659924,5041,16,6
72680740,13924,1,6
72701516,29929,196,6
72724404,21609,1089,6
72748328,6400,784,6
72770168,8464,169,6
72791984,5776,676,6
72813848,24649,1024,6
72837772,0,361,6
72856476,2601,1681,6
72879384,1,1444,6
72899148,16,100,6
72918904,400,4,6
72937612,3025,144,6
72959440,17956,4,6
72980256,0,361,6
72998968,15876,3844,6
73022884,36,2704,6
73043696,961,4,6
73062416,1764,9,6
73082188,4,225,6
73100896,1156,196,6
73122724,1296,256,6
73144568,2601,0,6
73164320,5776,49,6
73185132,1764,4,6
73204864,0,441,6
73223608,28561,900,6
73246492,7569,2116,6
73269360,25281,49,6
73291188,14884,2025,6
73315128,3249,729,6
73336972,676,225,6
73357780,13456,196,6
73380640,0,529,6
73399372,18225,2304,6
73423300,729,1156,6
73445132,0,1,6
73461772,0,576,6
73480492,27556,2809,6
73504396,15129,2601,6
73528316,484,576,6
73549128,8100,81,6
73569920,289,324,6
73590724,5184,289,6
73612576,2704,100,6
73634412,1764,121,6
73656240,2704,4,6
73676032,625,144,6
73696808,16,25,6
73715540,784,1,6
73734264,225,0,6
73752988,0,49,6
73770664,169,0,6
73789380,784,1,6
73808104,289,361,6
73828908,16,225,6
73848656,169,0,6
73867380,1444,0,6
73887140,324,1,6
73905864,4,81,6
73923540,16,0,6
73941216,2809,4,6
73960972,4096,64,6
73981768,144,100,6
74002576,144,64,6
74022340,16,25,6
74041064,144,25,6
74060820,784,9,6
74079540,1225,16,6
74100324,289,484,6
74121124,3364,100,6
74142980,289,225,6
74163776,36,36,6
74182488,1936,196,6
74204356,256,9,6
74223048,225,256,6
74243856,2209,4,6
74263612,784,9,6
74282332,4225,49,6
74303116,5184,400,6
74324956,28900,16,6
74346808,16641,2209,6
74370724,2601,784,6
74392560,361,4,6
74411304,9,196,6
74430000,5776,4,6
74449764,1089,0,6
74469528,2304,576,6
74491364,100,25,6
74511128,3481,324,6
74532972,2916,121,6
74554816,9,196,6
74573524,225,36,6
74593272,5041,1,6
74613064,6561,196,6
74634896,2304,484,6
74656720,29929,9,6
74677524,18225,400,6
74700412,6724,784,6
74722228,3969,400,6
74744092,841,169,6
74764896,2916,0,6
74784640,3136,196,6
74806496,3600,49,6
74827308,169,121,6
74848096,1600,529,6
74869928,8464,9,6
74889680,4356,256,6
74911532,49,256,6
74931304,64,4,6
74948984,64,16,6
74967704,9,36,6
74985368,961,36,6
75005136,1764,4,6
75024900,9,100,6
75043632,144,81,6
75063388,1225,64,6
75084172,7225,16,6
75104960,9,256,6
75123680,1089,144,6
75145528,5329,256,6
75167372,3600,16,6
75188172,9,361,6
75206912,49,1,6
75224568,1089,144,6
75246412,5929,961,6
75268256,64,225,6
75288000,2704,100,6
75309844,1681,9,6
75329616,441,4,6
75348336,2601,64,6
75369132,1,49,6
75386820,144,144,6
75407636,9,49,6
75425304,841,1,6
75444008,441,81,6
75463776,15625,4,6
75484576,5776,441,6
75506412,4,441,6
75525128,1681,1,6
75544896,729,25,6
75564648,729,16,6
75584420,121,0,6
75603140,361,49,6
75622900,9,49,6
75640560,4225,64,6
75661372,2809,9,6
75681132,3600,361,6
75702968,9025,0,6
75722716,6724,1156,6
75745620,49,441,6
75765376,2601,25,6
75786164,225,16,6
75805940,4096,16,6
75826720,11449,196,6
75849612,14161,576,6
75872488,4624,841,6
75894336,16,625,6
75914096,900,100,6
75934892,64,4,6
75952568,3969,9,6
75972340,4096,64,6
75993132,1296,169,6
76014988,16,144,6
76034736,784,121,6
76055528,64,16,6
76074256,1849,0,6
76094012,1,100,6
76112716,2601,144,6
76134576,1764,36,6
76155372,17161,25,6
76177208,13225,784,6
76200088,3481,676,6
76221916,5476,361,6
76243764,6724,64,6
76264576,1225,784,6
76286408,676,196,6
76307220,169,400,6
76328032,16,9,6
76345696,529,196,6
76366496,289,1,6
76385220,400,49,6
76404976,4,49,6
76422648,7396,121,6
76444484,27889,36,6
76466324,14400,1764,6
76490252,441,1089,6
76512084,1681,16,6
76532908,1600,1,6
76552652,961,16,6
76572424,529,49,6
76592192,676,9,6
76610892,1681,9,6
76630652,1156,9,6
76650412,4,144,6
76669156,49,1,6
76686820,1024,121,6
76708652,5625,0,6
76728412,2304,121,6
76750248,49,361,6
76770016,36,9,6
76787688,1849,1,6
76807452,7744,196,6
76829292,1225,289,6
76851120,1225,81,6
76871944,625,49,6
76891696,100,225,6
76912488,3025,144,6
76934328,29929,16,6
76956180,24025,729,6
76979040,4356,2116,6
77001924,8100,529,6
77023764,13924,529,6
77046628,15625,1681,6
77070560,16384,676,6
77093444,7921,484,6
77115296,5329,1296,6
77138176,49,289,6
77157928,6561,16,6
77178728,1444,4,6
77198508,961,225,6
77219296,529,36,6
77239052,49,36,6
77257768,400,0,6
77276484,14641,25,6
77298320,12996,225,6
77321204,36,1089,6
77342028,81,196,6
77361784,289,64,6
77381528,16,16,6
77400248,36,1,6
77417924,4900,9,6
77437704,2500,4,6
77457456,400,324,6
77478256,7921,81,6
77499052,10201,361,6
77521936,2209,676,6
77543768,441,169,6
77564576,3969,4,6
77584328,225,49,6
77604088,121,121,6
77624884,1156,4,6
77644652,100,0,6
77663372,10816,36,6
77685200,1521,484,6
77707036,3136,676,6
77728876,12996,169,6
77751764,24025,400,6
77774660,625,324,6
77795460,784,576,6
77816248,2500,36,6
77837032,2025,16,6
77857848,0,324,6
77876568,7225,961,6
77898404,8100,2304,6
77921296,14884,400,6
77944164,18496,1089,6
77968092,2704,81,6
77988900,16,1156,6
78009688,529,225,6
78030480,3600,169,6
78052320,9216,225,6
78074180,1156,729,6
78096020,900,49,6
78115780,12321,9,6
78136568,28561,9,6
78157372,4096,1156,6
78180256,16,1600,6
78201056,1089,25,6
78221852,3481,4,6
78241604,729,36,6
78261368,8281,324,6
78283212,11881,289,6
78306092,2601,196,6
78327940,196,256,6
78348732,5929,16,6
78369512,26896,196,6
78392416,0,1521,6
78412180,28900,3136,6
78436068,5329,2500,6
78458984,2585,100,6
78480804,16129,2116,6
78504728,11025,1764,6
78528652,22500,196,6
78551532,441,1681,6
78573364,324,324,6
78594156,24649,64,6
78616020,7905,1089,6
78638888,28900,3249,6
78662796,2209,2116,6
78685684,0,361,6
78704408,676,49,6
78724176,729,196,6
78744972,2209,441,6
78766812,484,144,6
78787604,30276,1,6
78808408,23409,225,6
78831292,1444,784,6
78853124,3364,81,6
78873940,529,4,6
78892636,7744,169,6
78914472,23104,144,6
78937364,11881,441,6
78960248,1225,1600,6
78983116,8464,169,6
79004964,961,324,6
79025768,1600,25,6
79046552,400,121,6
79067372,12100,49,6
79089208,4096,729,6
79111060,36,441,6
79130836,4,4,6
79147456,196,4,6
79166180,121,4,6
79184888,6084,1,6
79204652,12769,484,6
79227528,4356,1089,6
79250404,16,144,6
79270188,121,0,6
79288884,64,0,6
79306564,5329,36,6
79327372,12996,169,6
79350244,576,441,6
79371040,3600,256,6
79392892,100,100,6
79413700,841,225,6
79434496,7056,81,6
79455300,21609,441,6
79478168,36,2704,6
79498968,7225,2025,6
79521872,3844,256,6
79543676,9216,361,6
79565524,7569,64,6
79586336,2601,900,6
79608176,4225,361,6
79630016,144,0,6
79648712,81,361,6
79668496,3600,25,6
79689292,900,100,6
79710092,361,225,6
79730896,1936,196,6
79752756,49,4,6
79770428,4,121,6
79789144,9,36,6
79806816,5476,0,6
79826564,6084,144,6
79848408,400,676,6
79869220,1089,100,6
79891064,25,169,6
79910812,529,100,6
79931624,9801,100,6
79953444,0,676,6
79972168,1089,1444,6
79995044,29584,625,6
80017948,5329,625,6
80039776,10201,1369,6
80063696,23104,400,4
80086568,26244,1681,4
80110476,0,1089,4
80130256,15625,3025,4
80154160,2916,2500,4
80177044,529,81,4
80196808,1444,289,4
80218640,2304,400,4
80240476,2601,400,4
80262340,36,225,4
80282080,4489,100,4
80303932,10201,25,4
80325768,7056,36,4
80346556,3481,676,4
80368412,4096,324,4
80390260,3249,25,4
80411056,4624,441,4
80432888,7056,256,4
80454736,1764,225,4
80476580,676,529,4
80497380,676,25,4
80517140,4,225,4
80535864,4225,9,4
80555604,28900,0,4
80576396,3844,841,4
80598248,12996,1296,4
80622164,6889,169,4
80643992,2304,729,4
80665856,2116,4,4
80685608,841,169,4
80706416,529,225,4
80727216,841,144,4
80747996,10404,25,4
80769848,17956,676,4
80792740,100,625,4
80813528,3249,169,4
80835364,196,1,4
80854080,9216,4,4
80873852,17161,64,4
80895692,529,900,4
80916476,169,169,4
80937300,196,0,4
80955992,1936,324,4
80977840,3249,1,4
80997612,1156,625,4
81019448,1521,49,4
81040260,841,9,4
81058976,49,361,4
81078744,0,16,4
81096428,324,64,4
81116188,196,16,4
81135928,1600,9,4
81155688,7569,100,4
81177520,3844,225,4
81199380,81,576,4
81219140,529,0,4
81237860,81,16,4
81256584,81,16,4
81275300,0,4,4
81291932,9,9,4
81308572,100,0,4
81327304,169,0,4
81346012,0,1,4
81362648,0,1,4
81379284,9,4,4
81395940,4,1,4
81412568,49,0,4
81430256,100,9,4
81448984,1,9,4
81465628,36,4,4
81483308,4,0,4
81499936,169,1,4
81518668,529,0,4
81537376,324,4,4
81556096,64,36,4
81574804,16,0,4
81592500,1,9,4
81609140,49,4,4
81626812,144,0,4
81645540,9,25,4
81663236,169,1,4
81681948,9,4,4
81698580,9,1,4
81715240,256,16,4
81734992,256,16,4
81754740,324,64,4
81774492,961,1,4
81793216,25,169,4
81812984,289,0,4
81831692,49,64,4
81850416,16,9,4
81868112,49,1,4
81885768,16,16,4
81904496,196,25,4
81924272,121,841,4
81945060,64,625,4
81964816,25,289,4
81984576,25,784,4
82004340,144,1764,4
82026176,196,1444,4
82048020,64,121,4
82067788,0,0,4
82084420,0,400,4
82103140,4,1156,4
82122908,25,256,4
82142660,4,49,4
82160332,0,225,4
82179044,0,225,4
82197784,16,256,4
82217548,49,625,4
82237300,49,484,4
82257072,9,49,4
82274728,4,841,4
82293448,100,3600,4
82315292,144,1849,4
82337144,9,225,4
82355852,0,100,4
82374572,9,100,4
82393308,4,1,4
82409944,1,1,4
82426588,1,400,4
82445284,9,625,4
82464032,4,0,4
82480668,9,256,4
82499380,9,400,4
82518096,0,196,4
82536820,9,961,4
82555540,49,1849,4
82576328,64,256,4
82596104,25,64,4
82614820,81,121,4
82634588,121,841,4
82655380,64,1225,4
82676180,25,36,4
82694900,1,121,4
82713628,9,64,4
82731300,4,361,4
82750008,49,484,4
82769776,0,256,4
82788508,49,784,4
82808260,0,121,4
82826968,100,2401,4
82848828,49,484,4
82868584,0,196,4
82887296,0,100,4
82906012,0,49,4
82923696,0,400,4
82942408,16,25,4
82961140,4,529,4
82979868,4,1936,4
82999624,9,900,4
83018336,0,9,4
83034968,0,144,4
83053700,4,64,4
83071372,16,9,4
83089060,4,2601,4
83108808,81,2025,4
83129628,1,289,4
83148340,81,2704,4
83169144,81,36,4
83187876,4,36,4
83205544,16,529,4
83225292,36,1681,4
83246092,25,3136,4
83266892,121,256,4
83287704,16,81,4
83306408,1,16,4
83324104,49,121,4
83343864,25,576,4
83363624,4,225,4
83382348,0,1,4
83398984,0,36,4
83416652,0,121,4
83435384,9,400,4
83454100,9,729,4
83472820,9,225,4
83491532,4,9,4
83508176,0,25,4
83525856,1,729,4
83544568,36,2809,4
83565376,81,1156,4
83586188,25,289,4
83605940,36,729,4
83625696,64,625,4
83645460,0,25,4
83663144,0,16,4
83680816,25,36,4
83699540,9,121,4
83718268,4,49,4
83735936,0,36,4
83753620,4,16,4
83771292,1,100,4
83790020,0,289,4
83808740,16,100,4
83828504,4,49,4
83846188,1,4,4
83862832,1,16,4
83880500,1,36,4
83898188,1,169,4
83916908,0,169,4
83935620,16,441,4
83955372,100,1764,4
83977204,121,196,4
83998020,9,121,4
84016732,1,400,4
84035456,4,169,4
84054184,1,0,4
84070820,1,169,4
84089540,4,400,4
84108244,36,225,4
84128020,4,4,4
84144660,1,0,4
84161300,0,4,4
84177948,1,49,4
84195620,9,361,4
84214336,9,81,4
84232016,0,81,4
84249700,1,36,4
84267380,0,144,4
84286096,16,25,4
84304812,0,625,4
84323544,4,25,4
84341212,16,81,4
84359936,0,1,4
84376568,36,196,4
84396348,25,1521,4
84417144,121,2304,4
84438964,144,841,4
84459788,4,25,4
84477460,9,144,4
84496180,4,64,4
84513860,9,4,4
84530512,9,100,4
84549212,0,361,4
84567940,1,225,4
84586672,1,9,4
84603308,1,100,4
84622008,1,64,4
84639692,1,196,4
84658420,9,729,4
84677148,1,144,4
84695856,0,4,4
84712508,0,9,4
84729148,0,0,4
84745792,4,1,4
84762420,4,1,4
84779060,25,64,4
84797784,4,81,4
84815456,36,4,4
84833132,1,361,4
84851860,49,1024,4
84872656,25,0,4
84890340,4,324,4
84909048,1,25,4
84926740,0,0,4
84943380,9,1,4
84960016,0,1,4
84976664,1,36,4
84994344,0,196,4
85013060,4,289,4
85031780,4,81,4
85049468,0,36,4
85067144,0,144,4
85085864,4,400,4
85104576,4,1,4
85121216,16,576,4
85140972,25,529,4
85160740,1,841,4
85179468,36,400,4
85199228,4,49,4
85216900,1,36,4
85234572,1,484,4
85253308,0,100,4
85272020,1,144,4
85290740,16,144,4
85310508,1,4,4
85327144,0,4,4
85343784,0,36,4
85361464,0,0,4
85378108,9,81,4
85395780,25,121,4
85415540,16,4,4
85433220,1,324,4
85451940,25,169,4
85471704,1,1,4
85488332,0,4,4
85504980,1,4,4
85521624,4,16,4
85539296,9,4,4
85555944,4,49,4
85573616,9,144,4
85592344,4,0,4
85608992,0,49,4
85626668,0,1,4
85643304,0,36,4
85660988,1,36,4
85678660,1,25,4
85696336,1,169,4
85715064,16,484,4
85734816,16,121,4
85754580,1,1,4
85771208,0,9,4
85787872,1,9,4
85804504,1,4,4
85821144,1,196,4
85839852,0,361,4
85858580,4,16,4
85876276,4,121,4
85894984,25,676,4
85914740,25,16,4
85933456,4,2401,4
85953216,81,1521,4
85974024,0,196,4
85992744,1,1024,4
86012488,256,3969,4
86034332,196,1849,4
86056176,25,289,4
86075948,100,36,4
86095700,121,81,4
86115456,9,361,4
86134176,36,25,4
86152904,1,1,4
86169544,9,0,4
86186184,0,1,4
86202808,4,9,4
86219452,1,49,4
86237132,4,289,4
86255868,49,144,4
86275616,4,529,4
86294324,49,2209,4
86315148,64,324,4
86334900,0,9,4
86351540,0,49,4
86369208,4,225,4
86387940,0,81,4
86405620,1,9,4
86422252,9,49,4
86439948,0,36,4
86457628,1,16,4
86475300,4,81,4
86492972,16,121,4
86512756,1,9,4
86529388,1,144,4
86548100,0,196,4
86566812,4,36,4
86584500,1,4,4
86601140,1,1,4
86617780,0,169,4
86636496,4,676,4
86655228,25,400,4
86674976,4,196,4
86693692,9,16,4
86711380,1,196,4
86730108,9,4,4
86746740,1,225,4
86765460,9,49,4
86783144,9,225,4
86801848,16,441,4
86821620,0,1,4
86838256,1,4,4
86854900,16,100,4
86874656,0,4,4
86891292,16,16,4
86910028,0,144,4
86928752,1,36,4
86946420,4,9,4
86963056,1,64,4
86980744,4,256,4
86999472,0,25,4
87017136,1,225,4
87035856,16,144,4
87055620,1,49,4
87073308,4,625,4
87092020,25,576,4
87111780,4,25,4
87129460,36,289,4
87149212,9,0,4
87165852,1,4,4
87182504,1,16,4
87200172,1,400,4
87218900,49,484,4
87238648,1,64,4
87256340,4,64,4
87274032,36,169,4
87293780,16,49,4
87312496,0,25,4
87330192,9,1,4
87346820,1,1,4
87363460,1,144,4
87382188,1,81,4
87399864,1,64,4
87417532,36,441,4
87437296,49,441,4
87457068,4,169,4
87475780,9,64,4
87493468,9,196,4
87512196,0,196,4
87530904,0,16,4
87548580,1,81,4
87566252,4,0,4
87582900,16,16,4
87601612,16,0,4
87619296,9,64,4
87636968,4,81,4
87654660,0,64,4
87672344,9,16,4
87690024,16,324,4
87709792,1,36,4
87727456,16,64,4
87746172,9,36,4
87763860,0,25,4
87781540,0,100,4
87800264,1,0,4
87816900,4,64,4
87834576,4,121,4
87853308,1,81,4
87870980,0,4,4
87887620,4,121,4
87906344,9,225,4
87925060,16,81,4
87943784,9,36,4
87961456,0,36,4
87979140,0,4,4
87995780,9,0,4
88012420,4,64,4
88030092,1,49,4
88047776,0,1,4
88064432,1,25,4
88082100,4,16,4
88099780,1,100,4
88118500,36,121,4
88138268,4,1,4
88154896,4,49,4
88172584,1,81,4
88190268,1,0,4
88206900,0,121,4
88225620,1,0,4
88242260,9,169,4
88260988,25,9,4
88278664,1,121,4
88297376,1,169,4
88316100,9,169,4
88334824,1,169,4
88353540,4,64,4
88371224,1,16,4
88388904,4,25,4
88406576,1,0,4
88423220,0,169,4
88441940,9,225,4
88460668,1,36,4
88478340,1,49,4
88496016,9,16,4
88513700,1,4,4
88530336,4,0,4
88546968,0,121,4
88565688,1,121,4
88584416,1,16,4
88602096,0,0,4
88618732,1,0,4
88635368,4,9,4
88652024,9,100,4
88670752,0,0,4
88687380,4,144,4
88706104,1,0,4
88722744,4,121,4
88741452,0,0,4
88758100,4,9,4
88774736,0,49,4
88792420,0,36,4
88810092,1,16,4
88827780,0,49,4
88845456,0,36,4
88863144,4,121,4
88881856,1,9,4
88898484,1,100,4
88917216,16,81,4
88935944,0,4,4
88952576,0,9,4
88969216,9,144,4
88987940,4,484,4
89006652,4,324,4
89025372,16,121,4
89045144,9,1,4
89061784,1,49,4
89079448,25,289,4
89099212,49,1,4
89116896,4,1225,4
89136656,81,2401,4
89157460,49,81,4
89176180,1,484,4
89194896,0,49,4
89212572,1,49,4
89230240,0,1,4
89246900,0,81,4
89264572,0,49,4
89282256,4,900,4
89300968,81,3249,4
89321776,49,576,4
89341548,9,256,4
89360260,4,324,4
89378988,0,9,4
89395636,9,1,4
89412260,16,225,4
89432012,4,256,4
89450748,4,144,4
89469460,0,49,4
89487140,16,81,4
89505864,0,529,4
89524588,49,441,4
89544328,9,64,4
89562008,0,0,4
89578664,0,9,4
89595300,1,0,4
89611940,1,36,4
89629608,0,484,4
89648344,9,256,4
89667060,1,1,4
89683688,0,4,4
89700328,0,64,4
89718024,1,225,4
89736744,16,25,4
89755452,1,256,4
89774188,4,1225,4
89793940,25,169,4
89813696,0,81,4
89831372,0,81,4
89849068,0,16,4
89866740,16,1,4
89884424,1,16,4
89902108,1,25,4
89919784,1,169,4
89938500,16,361,4
89958252,1,49,4
89975940,4,100,4
89994664,9,361,4
90013376,4,49,4
90031040,0,64,4
90048752,4,144,4
90067456,0,25,6
90085128,16,81,6
90103872,1,25,6
90121548,0,441,6
90140260,1,484,6
90158972,4,81,6
90176664,9,81,6
90194344,16,625,6
90214092,36,400,6
90233860,16,1,6
90251540,0,25,6
90269232,1,64,6
90286896,0,1,6
90303548,1,169,6
90322264,4,121,6
90340988,1,25,6
90358664,4,25,6
90376340,4,16,6
90394032,0,1,6
90410664,1,0,6
90427296,0,49,6
90444988,4,324,6
90463704,16,441,6
90483448,4,64,6
90501136,0,49,6
90518820,0,144,6
90537540,1,64,6
90555220,9,4,6
90571864,0,9,6
90588500,0,36,6
90606180,4,81,6
90623860,9,49,6
90641544,1,49,6
90659224,4,16,6
90676896,0,1,6
90693528,0,256,6
90712252,36,841,6
90732012,25,400,6
90751784,1,100,6
90770508,1,9,6
90787148,0,16,6
90804816,0,9,6
90821460,1,0,6
90838104,1,16,6
90855784,9,121,6
90874492,4,169,6
90893212,16,81,6
90911940,4,9,6
90928576,4,169,6
90947292,16,225,6
90967068,9,36,6
90984744,0,9,6
91001384,0,49,6
91019044,0,16,6
91036736,1,25,6
91054420,1,36,6
91072100,0,16,6
91089784,0,4,6
91106416,0,25,6
91124100,0,25,6
91141776,0,49,6
91159452,1,64,6
91177144,0,16,6
91194824,4,64,6
91212496,25,625,6
91232240,36,196,6
91252020,1,0,6
91268656,0,16,6
91286336,1,4,6
91302984,1,144,6
91321700,0,1,6
91338348,1,121,6
91357064,16,100,6
91376816,4,4,6
91393448,0,0,6
91410096,0,0,6
91426720,0,4,6
91443376,0,36,6
91461052,1,49,6
91478740,1,36,6
91496412,0,4,6
91513056,1,0,6
91529688,1,0,6
91546336,0,9,6
91562972,0,9,6
91579616,1,4,6
91596252,9,0,6
91612896,1,1,6
91629524,0,9,6
91646176,0,9,6
91662816,0,0,6
91679452,4,0,6
91696092,0,4,6
91712752,0,1,6
91729380,36,4,6
91747052,16,4,6
91764744,4,0,6
91781392,64,4,6
91799064,625,4,6
91817788,196,25,6
91837548,0,36,6
91855232,361,0,6
91873940,1681,4,6
91893708,484,49,6
91913468,196,9,6
91932176,400,9,6
91950900,0,49,6
91968596,81,16,6
91987304,4,0,6
92003940,0,4,6
92020580,81,0,6
92038268,4,9,6
92054908,1,16,6
92072576,1,4,6
92089220,9,1,6
92105860,25,1,6
92123548,196,16,6
92143308,49,16,6
92162004,6561,4,6
92181772,11664,64,6
92203616,1296,625,6
92225436,2209,256,6
92247296,5625,81,6
92268084,6241,144,6
92289920,5776,841,6
92311788,529,1936,6
92333624,64,256,6
92353376,256,49,6
92373148,400,9,6
92391844,841,121,6
92412652,169,9,6
92431384,4096,36,6
92452168,841,256,6
92472972,1,225,6
92491692,289,121,6
92512500,3481,0,6
92532256,4096,225,6
92554096,289,4,6
92572816,289,1,6
92591536,49,81,6
92610252,961,25,6
92630044,1225,121,6
92651856,7056,9,6
92671608,2500,64,6
92692392,7225,784,6
92714252,13225,9,6
92735060,900,1764,6
92756896,961,121,6
92777696,196,169,6
92798492,196,4,6
92817212,169,0,6
92835940,81,144,6
92855696,1156,64,6
92876488,64,784,6
92896272,81,36,6
92914984,4,25,6
92932652,100,121,6
92953444,2209,25,6
92974264,81,81,6
92992968,3136,169,6
93014828,1764,25,6
93035628,16,1,6
93053304,81,1,6
93070976,289,25,6
93090740,81,0,6
93108420,49,25,6
93127136,324,0,6
93145860,81,1,6
93163540,1,36,6
93181228,9,25,6
93198888,289,0,6
93217612,576,0,6
93236332,961,25,6
93256104,100,81,6
93275852,324,16,6
93295628,400,9,6
93314336,841,9,6
93333048,225,0,6
93351784,225,49,6
93371540,289,0,6
93390248,361,81,6
93410012,2401,0,6
93429768,1600,36,6
93450588,441,16,6
93470340,64,49,6
93489052,361,64,6
93508820,441,9,6
93527536,4,9,6
93544180,25,0,6
93561856,81,25,6
93580584,676,4,6
93599300,1444,4,6
93619056,900,64,6
93638808,1521,64,6
93659600,4900,36,6
93680404,5329,100,6
93702260,2116,256,6
93724100,64,144,6
93743852,576,16,6
93763612,1681,81,6
93784412,9801,36,6
93805208,5929,225,6
93827040,4,484,6
93845780,1296,81,6
93866576,1225,9,6
93886336,2401,1,6
93906112,2401,49,6
93926892,1,256,6
93945620,676,16,6
93965372,324,121,6
93986184,4,169,6
94004904,4,81,6
94022576,36,36,6
94041296,324,4,6
94060024,25,16,6
94078740,0,0,6
94095380,144,4,6
94114092,9,16,6
94131772,289,121,6
94152572,25,9,6
94170276,4,25,6
94187944,64,49,6
94206648,900,25,6
94226412,1936,49,6
94247216,576,100,6
94268024,1,64,6
94285700,49,0,6
94303388,225,1,6
94322104,625,4,6
94340808,36,16,6
94359524,9,25,6
94377220,81,1,6
94394904,289,1,6
94413620,529,16,6
94433376,324,36,6
94453152,225,16,6
94472892,841,9,6
94491620,529,36,6
94511376,49,36,6
94530104,256,4,6
94548820,169,0,6
94567540,225,4,6
94586248,841,0,6
94604968,169,49,6
94624732,4,16,6
94642420,1,0,6
94659056,25,1,6
94676740,16,4,6
94694428,225,0,6
94713148,400,16,6
94732896,81,64,6
94751624,0,36,6
94769316,25,4,6
94786980,121,0,6
94805708,900,1,6
94824404,2304,0,6
94844184,3249,36,6
94864976,400,36,6
94884736,1089,9,6
94904496,4624,0,6
94924252,2304,36,6
94945052,289,196,6
94965856,1764,225,6
94987688,196,169,6
95008492,1369,121,6
95030348,225,16,6
95050112,1,81,6
95067780,256,4,6
95086492,225,0,6
95105228,4,0,6
95121852,289,169,6
95142664,900,121,6
95163464,529,49,6
95183224,25,169,6
95202972,256,121,6
95223772,900,4,6
95242504,289,64,6
95262256,64,121,6
95282020,529,9,6
95300740,81,100,6
95320500,49,9,6
95338180,4,0,6
95354824,289,1,6
95373536,196,4,6
95392252,0,16,6
95409940,225,1,6
95428664,529,1,6
95447384,0,25,6
95465056,16,16,6
95483784,121,9,6
95502508,729,0,6
95521220,1024,4,6
95540968,529,81,6
95560736,169,100,6
95581540,1521,49,6
95602328,784,0,6
95621044,729,49,6
95640820,1296,36,6
95661616,25,121,6
95681376,1600,144,6
95703224,1600,1,6
95722972,49,169,6
95742744,1296,25,6
95763528,4761,4,6
95783296,961,225,6
95804100,121,121,6
95824900,16,0,6
95842592,9,36,6
95860272,361,4,6
95878984,576,25,6
95898744,81,1,6
95916436,0,9,6
95933064,121,0,6
95951772,169,25,6
95971540,841,1,6
95990260,9,9,6
96006884,169,81,6
96026668,2025,1,6
96046416,144,25,6
96066168,729,169,6
96086956,1296,1,6
96106724,1936,9,6
96126500,4356,25,6
96147292,2401,289,6
96169148,3364,144,6
96190972,1681,16,6
96211772,144,324,6
96232580,144,81,6
96252336,49,81,6
96271060,289,16,6
96290808,484,9,6
96309548,81,0,6
96327220,0,0,6
96343864,100,1,6
96362580,25,9,6
96380256,49,1,6
96397928,0,9,6
96414580,484,1,6
96433304,2209,4,6
96453064,1156,81,6
96473856,1089,144,6
96495692,2025,49,6
96516508,196,49,6
96536256,225,4,6
96554968,2304,36,6
96575768,9409,1,6
96595524,6400,16,6
96616336,0,361,6
96635056,1089,64,6
96655840,576,256,6
96676660,1024,64,6
96697464,784,4,6
96716188,529,225,6
96736972,100,121,6
96757784,484,9,6
96776500,3969,16,6
96797288,1681,25,6
96818080,729,64,6
96837852,2304,0,6
96857624,324,16,6
96877372,64,64,6
96896104,4,25,6
96913772,0,25,6
96931448,1444,49,6
96952244,784,16,6
96972020,81,121,6
96991780,1936,36,6
97012564,8100,81,6
97033388,3025,361,6
97055224,9,361,6
97073932,16,121,6
97093696,729,64,6
97113460,4,36,6
97131144,1296,0,6
97150876,3969,49,6
97171692,2025,144,6
97193540,0,196,6
97212260,81,81,6
97230988,49,4,6
97248660,529,0,6
97267364,361,4,6
97286072,100,36,6
97305840,100,4,6
97324572,9,4,6
97341212,625,16,6
97360984,1225,36,6
97381772,1024,225,6
97403600,0,0,6
97420228,0,784,6
97438984,13924,2116,6
97462892,900,1444,6
97484716,144,36,6
97504484,144,36,6
97524256,81,4,6
97541924,729,16,6
97561704,4225,81,6
97582492,3249,9,6
97602248,1764,289,6
97624092,361,64,6
97643856,1521,1,6
97663612,841,36,6
97683372,1764,1,6
97703148,1,49,6
97720816,1,0,6
97737460,121,16,6
97757224,9,1,6
97773868,100,1,6
97792576,361,9,6
97811296,169,4,6
97830024,400,9,6
97848744,1521,4,6
97868480,5184,64,6
97889292,3249,676,6
97911136,289,729,6
97931924,289,9,6
97950640,841,9,6
97969364,21025,289,6
97992252,0,729,6
98010980,7921,2401,6
98033848,2601,961,6
98055700,3136,1,6
98075436,9604,49,6
98096248,11449,169,6
98119136,361,225,6
98139932,3600,441,6
98161772,8836,16,6
98182556,11236,144,6
98205444,324,256,6
98226248,1296,529,6
98248080,4761,16,6
98268880,361,25,6
98288652,18769,484,6
98311520,625,841,6
98332328,81,961,6
98352088,0,169,6
98370820,121,196,6
98391616,324,289,6
98412416,36,169,6
98432176,784,25,6
98451924,441,4,6
98470656,36,81,6
98489380,25,0,6
98507072,36,225,6
98526820,64,25,6
98545544,25,196,6
98565288,5929,4,6
98585044,10000,100,6
98607932,961,361,6
98628748,100,121,6
98649544,4,1,6
98666172,169,0,6
98684876,5776,9,6
98704660,13924,49,6
98726488,9604,841,6
98748320,3249,1024,6
98771224,2209,676,6
98793044,10000,144,6
98815908,4096,441,6
98837780,5625,841,6
98859600,17424,225,6
98882480,6561,841,6
98904360,144,1681,6
98926176,64,169,6
98945936,324,36,6
98965684,2916,225,6
98987540,2304,441,6
99009376,25,961,6
99029132,1296,64,6
99049936,169,196,6
99070736,729,0,6
99089460,289,0,6
99108180,16,25,6
99126888,324,81,6
99146648,1024,4,6
99166432,1849,16,6
99187212,169,100,6
99208008,676,81,6
99227784,16,144,6
99247528,2025,100,6
99269352,7744,121,6
99291224,841,100,6
99312008,3136,196,6
99333820,0,324,6
99352560,0,576,6
99371296,900,1521,6
99393104,12321,1600,6
99417036,784,81,6
99436808,6400,361,6
99458644,576,400,6
99479444,6400,144,6
99501300,6400,121,6
99523136,484,81,6
99542892,4356,256,6
99564740,3481,256,6
99586564,400,324,6
99607352,1296,256,6
99629220,2304,144,6
99651036,0,0,6
99667692,3136,529,6
99689536,3844,1444,6
99712412,11449,256,6
99735276,7569,400,6
99757120,529,49,6
99776888,625,324,6
99797692,81,121,6
99817444,256,0,6
99836176,1444,4,6
99855944,1089,9,6
99875696,400,144,6
99896496,1156,121,6
99918332,169,0,6
99937052,1444,81,6
99957856,8836,36,6
99978660,6889,225,6
100000488,4,400,6
100020256,4096,16,6
100042088,3600,100,6
100064968,49,144,3
100085788,576,121,3
100107620,441,4,3
100127372,2025,64,3
100149200,0,81,3
100167924,3364,64,3
100189772,1,81,3
100208488,25,144,3
100229308,729,25,3
100250096,729,64,3
100270900,100,196,3
100292744,2601,16,3
100314580,196,64,3
100335376,1,49,3
100354112,576,25,3
100374904,841,64,3
100395680,5776,4,3
100416500,1,484,3
100436248,4356,169,3
100459140,784,25,3
100479928,400,1,3
100499708,225,81,3
100520484,12321,1,3
100542328,6084,144,3
100565212,3136,225,3
100588096,2704,9,3
100608888,3025,144,3
100631764,3600,100,3
100654640,484,441,3
100676488,5041,144,3
100699384,1024,1,3
100720164,4225,484,3
100743056,10404,4,3
100764896,625,961,3
100786716,7921,225,3
100809596,2916,144,3
100832504,1296,324,3
100855380,2809,0,3
100876184,900,16,3
100896972,576,36,3
100917776,1369,100,3
100940656,169,81,3
100961452,900,36,3
100982248,1156,4,3
101003052,100,36,3
101023852,169,81,3
101044648,1764,25,3
101066500,225,36,3
101087300,4,121,3
101107060,625,36,3
101127848,324,0,3
101147600,2116,16,3
101169448,5476,1,3
101190260,21609,36,3
101213112,6084,484,3
101236016,5776,1089,3
101259916,0,225,3
101279676,5929,1156,3
101303612,9801,2704,3
101327520,24336,324,3
101351460,22201,2116,3
101376404,6724,400,3
101399276,0,361,3
101419048,20449,729,3
101442980,5625,3249,3
101466888,144,225,3
101488744,5776,16,3
101510564,625,0,3
101530340,16,225,3
101551148,484,36,3
101571948,144,1,3
101591700,16,16,3
101611448,1369,36,3
101633292,3025,49,3
101655116,144,196,3
101676964,7569,121,3
101699852,0,121,3
101719612,8649,1089,3
101743548,289,1225,3
101766424,529,81,3
101787224,196,36,3
101808016,256,16,3
101828816,9,121,3
101848568,16,0,3
101867296,0,16,3
101886028,169,9,3
101905780,36,361,3
101926576,144,400,3
101948424,81,1,3
101967156,81,1,3
101985856,9,4,3
102003544,64,9,3
102022260,0,0,3
102039948,9,36,3
102058660,16,4,3
102077368,0,0,3
102095068,1,16,3
102113784,0,1,3
102131456,289,16,3
102152268,25,9,3
102170996,441,9,3
102190736,484,1,3
102210492,361,25,3
102231296,256,25,3
102252100,196,81,3
102272888,25,81,3
102292660,4,64,3
102311388,4,144,3
102331132,196,81,3
102351944,169,25,3
102372740,25,4,3
102391464,36,9,3
102410180,64,1,3
102428908,4,9,3
102446580,144,289,3
102468416,625,784,3
102490260,324,1369,3
102513128,100,1444,3
102536028,289,441,3
102557856,324,196,3
102579696,0,3025,3
102600480,225,5625,3
102623380,196,3249,3
102646256,196,169,3
102668100,36,121,3
102688908,9,576,3
102708660,64,361,3
102729452,100,676,3
102751308,196,400,3
102773144,36,9,3
102791864,16,100,3
102812664,16,25,3
102832428,9,324,3
102852168,16,1936,3
102874016,16,1681,3
102895860,81,121,3
102916656,4,4,3
102934332,36,121,3
102955144,0,16,3
102973868,9,0,3
102991536,1,625,3
103011288,36,441,3
103032104,25,900,3
103052888,81,961,3
103073696,81,289,3
103094508,9,169,3
103114268,9,1,3
103131944,4,784,3
103151700,121,484,3
103173548,25,4,3
103192260,0,49,3
103210976,9,36,3
103229708,16,289,3
103250496,49,64,3
103270248,0,4,3
103287948,1,36,3
103306668,1,9,3
103324336,0,625,3
103344092,16,400,3
103364896,0,81,3
103383612,81,576,3
103404420,36,49,3
103424188,1,0,3
103441860,9,36,3
103460576,25,4,3
103479288,9,9,3
103496980,1,0,3
103514664,4,0,3
103532336,0,16,3
103551064,4,100,3
103570820,9,196,3
103590572,9,676,3
103610324,36,1369,3
103632180,49,324,3
103652976,0,0,3
103670660,1,4,3
103688340,9,81,3
103707056,1,169,3
103726824,4,196,3
103746596,9,9,3
103764272,25,961,3
103785060,121,225,3
103806892,16,121,3
103827704,0,25,3
103846436,1,0,3
103864104,0,25,3
103882824,4,16,3
103901536,64,16,3
103921296,16,529,3
103942100,25,1521,3
103963936,121,1369,3
103986816,64,144,3
104007612,0,25,3
104026340,0,100,3
104046096,9,1,3
104063776,0,16,3
104082500,4,25,3
104101212,9,9,3
104118896,4,4,3
104136588,4,1,3
104154260,0,169,3
104174008,81,144,3
104194816,100,169,3
104216664,16,25,3
104236432,1,16,3
104255140,0,0,3
104272812,4,25,3
104291536,16,100,3
104312348,9,4,3
104330024,1,49,3
104348736,0,81,3
104367452,25,361,3
104388264,16,0,3
104406968,4,25,3
104425708,4,196,3
104445468,9,529,3
104465224,81,225,3
104486020,49,9,3
104504748,4,64,3
104523456,4,49,3
104542168,9,225,3
104561948,9,0,3
104579636,16,9,3
104598344,1,36,3
104617060,1,0,3
104634740,9,4,3
104652412,1,0,3
104670108,16,121,3
104690900,25,225,3
104711704,0,1,3
104729380,36,81,3
104749140,25,9,3
104767860,4,0,3
104785540,1,9,3
104803216,25,144,3
104824020,9,169,3
104843776,1,4,3
104861452,1,49,3
104880176,1,25,3
104898900,16,25,3
104918660,1,100,3
104938404,16,49,3
104958188,16,196,3
104978972,9,1296,3
104999764,100,1764,3
105022668,81,289,3
105043460,0,16,3
105062176,0,4,3
105079864,0,25,3
105098592,4,49,3
105117304,1,25,3
105136020,9,49,3
105154744,4,25,3
105173460,0,25,3
105192176,4,0,3
105209852,16,324,3
105230660,9,676,3
105250412,0,81,3
105269144,4,9,3
105286820,4,144,3
105306580,1,169,3
105326340,0,25,3
105345068,1,100,3
105364828,49,484,3
105385620,81,576,3
105406424,36,784,3
105427228,25,900,3
105448016,49,729,3
105468808,16,225,3
105489616,1,0,3
105507300,4,36,3
105526008,4,9,3
105543700,25,0,3
105562424,0,4,3
105580100,4,16,3
105598820,1,169,3
105618580,9,121,3
105638340,4,16,3
105657072,1,4,3
105674728,9,100,3
105694496,9,100,3
105714252,1,36,3
105732972,4,169,3
105752740,4,1156,3
105773532,49,361,3
105794340,0,16,3
105813056,0,64,3
105831796,1,1,3
105849468,64,529,3
105870248,144,1089,3
105893152,16,484,3
105913944,4,196,3
105933700,36,4,3
105952420,0,144,3
105972180,16,225,3
105992976,1,256,3
106012744,36,64,3
106032500,64,36,3
106052260,9,1,3
106069940,4,9,3
106087632,1,1,3
106105304,4,36,3
106124020,0,144,3
106143788,1,9,3
106161472,0,196,3
106181216,16,576,3
106202008,4,1,3
106219708,16,144,3
106240496,4,0,3
106258176,1,121,3
106277948,4,9,3
106295624,9,25,3
106314336,0,25,3
106333056,1,1,3
106350740,0,9,3
106368428,1,4,3
106386100,1,169,3
106405848,25,361,3
106426664,1,225,3
106446420,1,4,3
106464096,9,256,3
106483856,16,256,3
106504648,9,36,3
106523368,4,0,3
106541068,4,4,3
106558744,0,1,3
106576432,0,1,3
106594104,1,9,3
106611788,4,1,3
106629464,9,16,3
106648180,64,4,3
106666900,9,0,3
106684580,0,36,3
106703296,4,144,3
106723060,4,16,3
106741788,16,144,3
106762596,1,784,3
106782340,9,529,3
106802096,9,4,3
106819788,9,1,3
106837464,9,4,3
106855144,36,36,3
106874912,1,0,3
106892584,4,0,3
106910248,16,25,3
106930020,4,64,3
106948752,1,100,3
106968504,1,1,3
106986176,9,49,3
107004884,9,4,3
107022584,0,121,3
107042348,0,81,3
107061056,0,0,3
107078744,0,36,3
107097460,16,225,3
107118252,9,36,3
107136972,0,1,3
107154660,16,25,3
107174428,1,4,3
107192100,0,9,3
107209792,1,0,3
107227460,1,169,3
107247220,9,225,3
107266972,0,100,3
107286752,1,16,3
107305460,16,1,3
107324184,1,1,3
107341872,1,64,3
107360588,0,9,3
107378244,0,196,3
107398016,0,81,3
107416740,0,81,3
107435460,0,81,3
107454168,0,4,3
107471852,1,64,3
107490580,1,16,3
107509300,0,25,3
107528028,9,1,3
107545700,0,81,3
107564424,25,9,3
107583128,16,0,3
107601848,4,0,3
107619544,1,0,3
107637208,4,0,3
107654900,9,9,3
107672572,1,36,3
107691300,1,121,3
107711060,0,64,3
107729776,0,16,3
107748512,0,1,3
107766176,4,64,3
107784900,1,4,3
107802580,9,49,3
107821296,9,361,3
107841072,0,1,3
107858728,25,361,3
107879544,49,1,3
107898264,1,169,3
107918020,0,1,3
107935692,25,841,3
107956508,16,676,3
107977300,9,4,3
107994980,16,144,3
108015780,0,784,3
108035536,36,1444,3
108057372,36,729,3
108078184,16,225,3
108098988,36,36,3
108118744,0,225,3
108138492,100,441,3
108160340,49,36,3
108180104,0,100,3
108199852,0,289,3
108219624,4,81,3
108238340,1,9,3
108256020,9,25,3
108274744,36,529,3
108295548,0,144,3
108315300,4,1,3
108332968,16,4,3
108351704,1,64,3
108370412,4,289,3
108390172,0,25,3
108408904,4,4,3
108426580,36,4,3
108445300,1,100,3
108465056,4,625,3
108484816,1,324,3
108504580,1,49,3
108523304,1,4,3
108540984,9,16,3
108559700,9,4,3
108577372,1,81,3
108596100,1,36,3
108614828,0,0,3
108632492,0,576,3
108652252,64,1444,3
108674100,81,256,3
108694912,1,169,3
108714660,0,289,3
108734416,4,196,3
108754192,9,196,3
108773940,16,100,3
108794740,9,400,3
108814512,64,4,3
108833212,9,0,3
108850896,1,36,3
108869616,9,361,3
108889380,81,1,3
108908092,36,529,3
108928888,9,256,3
108948668,9,25,3
108967372,25,1156,3
108989212,361,3249,3
109012108,225,529,3
109033932,0,256,3
109053696,25,1764,3
109075536,100,1156,3
109098412,9,289,3
109118176,49,100,3
109138992,49,36,3
109158748,1,64,3
109177468,0,16,3
109196176,16,25,3
109215940,4,400,3
109235692,1,121,3
109255460,1,36,3
109274176,4,81,3
109292896,9,16,3
109311620,0,4,3
109329296,0,100,3
109349056,1,324,3
109368824,25,1600,3
109390664,9,121,3
109410420,16,25,3
109430192,4,16,3
109448908,4,81,3
109467604,4,256,3
109487388,4,400,3
109507128,16,1225,3
109528984,36,169,3
109549780,16,4,3
109568492,64,324,3
109589292,64,121,3
109610096,4,25,3
109628824,0,49,3
109647540,0,289,3
109667288,9,0,3
109684984,1,49,3
109703700,0,36,3
109722420,4,16,3
109741140,1,0,3
109758820,1,0,3
109776492,1,36,3
109795220,0,81,3
109813940,4,25,3
109832656,16,144,3
109853460,25,361,3
109874256,25,9,3
109892976,0,36,3
109911708,1,49,3
109930416,4,225,3
109950188,25,25,3
109969948,1,9,3
109987620,0,25,3
110006344,0,4,3
110024024,1,4,3
110041696,4,9,3
110059376,4,49,7
110078096,16,169,7
110098900,4,4,7
110116576,9,256,7
110136340,16,225,7
110157152,16,1,7
110175856,25,100,7
110196656,9,25,7
110215380,0,81,7
110234100,4,324,7
110253852,4,256,7
110273628,0,0,7
110291308,16,196,7
110312100,36,81,7
110331852,16,25,7
110351628,4,49,7
110370348,9,4,7
110388020,1,4,7
110405712,1,121,7
110425472,9,324,7
110445212,9,256,7
110464976,9,576,7
110484756,36,361,7
110505548,16,9,7
110524260,1,25,7
110542976,16,121,7
110563776,49,225,7
110584580,36,169,7
110605388,1,1,7
110623068,9,4,7
110640740,4,169,7
110660492,1,441,7
110680264,1,196,7
110700020,4,36,7
110718740,9,9,7
110736428,1,100,7
110756192,9,1,7
110773860,16,16,7
110793612,81,144,7
110814420,49,784,7
110835220,64,1156,7
110857056,36,784,7
110877852,9,784,7
110897612,9,529,7
110917384,9,9,7
110935072,0,1,7
110952732,0,0,7
110970408,1,16,7
110989132,0,36,7
111007860,0,49,7
111026592,1,49,7
111045288,1,25,7
111064004,1,16,7
111082748,4,25,7
111101468,16,64,7
111121216,0,1,7
111138908,4,1,7
111156588,0,25,7
111175300,1,25,7
111194008,4,81,7
111212752,1,196,7
111232508,4,4,7
111250188,9,100,7
111269940,4,144,7
111289696,49,16,7
111309456,1,144,7
111329212,4,0,7
111346912,4,36,7
111365620,25,100,7
111386424,16,9,7
111405144,25,100,7
111425948,16,729,7
111446744,100,1089,7
111469624,4,324,7
111489380,1,25,7
111508112,4,1,7
111525788,9,1,7
111543468,4,0,7
111561128,0,81,7
111579848,64,49,7
111599604,64,225,7
111620420,4,100,7
111640168,64,625,7
111660956,169,2601,7
111683860,9,289,7
111703620,49,289,7
111724412,4,64,7
111743148,16,9,7
111761856,1,100,7
111781624,36,25,7
111801384,49,4,7
111820092,0,1,7
111837776,4,1,7
111855456,4,4,7
111873160,4,1,7
111890828,9,0,7
111908496,4,4,7
111926176,0,0,7
111943860,1,0,7
111961528,0,4,7
111979216,0,9,7
111996884,0,4,7
112014576,1,1,7
112032260,0,4,7
112049936,9,9,7
112067628,0,16,7
112086348,0,36,7
112105048,36,0,7
112123780,16,9,7
112142496,16,4,7
112161220,36,4,7
112179940,36,9,7
112198652,25,4,7
112217376,9,4,7
112235060,1,0,7
112252740,0,1,7
112270416,0,1,7
112288100,9,0,7
112305768,36,0,7
112324492,1,0,7
112342176,16,0,7
112360896,16,0,7
112379620,9,0,7
112397288,4,0,7
112414972,0,0,7
112432656,1,0,7
112450328,0,0,7
112468020,1,1,7
112485696,1,0,7
112503380,0,0,7
112521064,0,0,7
112538744,0,0,7
112556416,0,0,7
112574084,0,0,7
112591768,1,0,7
112609460,1,0,7
112627140,1,0,7
112644816,0,0,7
112662480,0,0,7
112680172,0,0,7
112697848,0,0,7
112715536,0,0,7
112733224,0,0,7
112750896,0,0,7
112768568,0,0,7
112786256,0,0,7
112803936,0,0,7
112821616,0,0,7
112839296,0,0,7
112856968,0,0,7
112874652,0,0,7
112892340,1,1,7
112910012,0,0,7
112927688,0,0,7
112945372,0,0,7
112963048,0,0,7
112980724,0,0,7
112998416,0,0,7
113016096,0,0,7
113033768,0,0,7
113051452,0,0,7
113069136,0,0,7
113086816,0,0,7
113104496,0,0,7
113122168,0,0,7
113139856,0,0,7
113157532,0,0,7
113175204,0,0,7
113192880,0,0,7
113210576,0,0,7
113228256,0,0,7
113245928,0,0,7
113263600,0,0,7
113281296,0,0,7
113298980,0,0,7
113316648,0,0,7
113334336,0,0,7
113352012,0,0,7
113369684,0,0,7
113387368,0,1,7
113405060,1,0,7
113422748,0,0,7
113440416,0,0,7
113458084,0,0,7
113475772,0,0,7
113493448,0,0,7
113511132,0,0,7
113528800,0,0,7
113546492,0,0,7
113564176,0,0,7
113581848,0,0,7
113599536,0,1,7
113617220,0,0,7
113634896,0,0,7
113652564,0,0,7
113670256,0,0,7
113687940,0,0,7
113705616,0,0,7
113723292,1,0,7
113740976,0,0,7
113758656,0,0,7
113776328,0,0,7
113794000,0,0,7
113811696,0,0,7
113829376,0,0,7
113847048,0,0,7
113864732,0,0,7
113882424,0,1,7
113900088,0,0,7
113917764,0,0,7
113935456,0,0,7
113953136,0,1,7
113970820,1,0,7
113988496,0,0,7
114006176,0,0,7
114023844,0,0,7
114041528,0,0,7
114059200,0,0,7
114076892,0,0,7
114094568,0,0,7
114112248,0,0,7
114129936,0,0,7
114147612,0,0,7
114165296,0,0,7
114182976,0,0,7
114200652,0,0,7
114218336,0,0,7
114236008,0,0,7
114253700,0,1,7
114271380,0,0,7
114289060,0,0,7
114306736,0,0,7
114324400,0,0,7
114342096,0,0,7
114359768,1,0,7
114377452,0,0,7
114395120,0,0,7
114412816,0,0,7
114430492,0,0,7
114448176,0,0,7
114465856,0,0,7
114483536,0,0,7
114501208,0,0,7
114518888,0,0,7
114536576,0,0,7
114554260,0,0,7
114571928,0,0,7
114589608,0,0,7
114607296,0,0,7
114624968,0,0,7
114642648,0,0,7
114660320,0,0,7
114678016,0,0,7
114695696,0,0,7
114713368,0,0,7
114731056,0,0,7
114748736,0,0,7
114766416,0,0,7
114784100,0,0,7
114801780,0,0,7
114819456,0,0,7
114837128,0,0,7
114854808,0,0,7
114872496,0,0,7
114890168,0,0,7
114907844,0,0,7
114925524,0,0,7
114943216,0,0,7
114960892,1,0,7
114978580,0,0,7
114996256,0,0,7
115013944,0,0,7
115031616,0,0,7
115049288,0,0,7
115066976,0,0,7
115084656,0,0,7
115102328,0,0,7
115120008,0,0,7
115137696,0,0,7
115155364,0,0,7
115173048,0,0,7
115190724,0,0,7
115208416,0,0,7
115226088,0,0,7
115243768,0,0,7
115261456,0,0,7
115279136,0,0,7
115296816,0,0,7
115314488,0,0,7
115332172,0,0,7
115349852,0,0,7
115367528,0,0,7
115385204,0,0,7
115402896,0,0,7
115420576,0,0,7
115438248,0,0,7
115455920,0,0,7
115473612,0,0,7
115491284,0,0,7
115508968,0,0,7
115526640,0,0,7
115544336,0,0,7
115562016,0,0,7
115579688,0,0,7
115597372,0,0,7
115615052,0,0,7
115632724,0,0,7
115650404,0,0,7
115668096,0,0,7
115685776,0,0,7
115703444,0,0,7
115721124,0,0,7
115738816,0,0,7
115756488,0,0,7
115774176,0,0,7
115791840,0,0,7
115809532,0,0,7
115827216,0,0,7
115844896,0,0,7
115862576,0,0,7
115880256,0,0,7
115897932,0,0,7
115915608,0,0,7
115933296,0,0,7
115950976,0,0,7
115968648,0,0,7
115986328,0,0,7
116004016,0,0,7
116021688,0,0,7
116039376,0,0,7
116057040,0,0,7
116074732,0,0,7
116092408,0,0,7
116110084,0,0,7
116127772,0,0,7
116145456,0,0,7
116163128,0,0,7
116180812,0,0,7
116198496,0,0,7
116216172,0,0,7
116233848,0,0,7
116251528,0,0,7
116269216,0,0,7
116286888,0,0,7
116304568,0,0,7
116322240,0,0,7
116339936,0,0,7
116357608,0,0,7
116375288,0,0,7
116392972,0,0,7
116410652,0,0,7
116428328,0,0,7
116446012,0,0,7
116463704,0,0,7
116481372,0,0,7
116499056,0,0,7
116516736,0,1,7
116534412,0,0,7
116552096,0,0,7
116569764,0,0,7
116587440,0,0,7
116605136,0,0,7
116622808,0,0,7
116640488,0,0,7
116658164,0,0,7
116675864,0,0,7
116693536,0,0,7
116711216,0,0,7
116728896,0,0,7
116746576,0,0,7
116764248,0,0,7
116781928,0,0,7
116799616,0,0,7
116817292,0,0,7
116834968,0,0,7
116852640,0,0,7
116870332,0,0,7
116888008,0,0,7
116905688,0,0,7
116923360,0,0,7
116941056,0,0,7
116958744,0,0,7
116976416,0,0,7
116994092,0,0,7
117011772,0,0,7
117029444,0,0,7
117047128,0,0,7
117064816,0,0,7
117082492,0,0,7
117100168,0,0,7
117117848,0,0,7
117135536,0,0,7
117153208,0,0,7
117170896,0,0,7
117188564,0,0,7
117206252,0,0,7
117223928,0,0,7
117241616,0,0,7
117259296,0,0,7
117276972,0,0,7
117294648,0,0,7
117312324,0,0,7
117330012,0,0,7
117347692,0,0,7
117365364,1,0,7
117383048,0,0,7
117400732,0,0,7
117418404,0,0,7
117436088,0,0,7
117453764,0,0,7
117471452,0,0,7
117489124,0,0,7
117506804,0,0,7
117524496,0,0,7
117542172,0,0,7
117559844,0,0,7
117577524,0,0,7
117595212,0,0,7
117612892,0,0,7
117630564,0,0,7
117648252,0,0,7
117665936,0,0,7
117683616,0,0,7
117701296,0,0,7
117718960,0,0,7
117736656,0,0,7
117754328,0,0,7
117772008,0,0,7
117789680,0,0,7
117807376,0,0,7
117825056,0,0,7
117842728,0,0,7
117860416,0,0,7
117878096,0,0,7
117895768,0,0,7
117913444,0,0,7
117931136,0,0,7
117948816,0,0,7
117966496,0,0,7
117984172,0,1,7
118001852,0,0,7
118019528,0,0,7
118037208,0,0,7
118054880,0,0,7
118072576,0,0,7
118090264,0,0,7
118107928,0,0,7
118125616,0,0,7
118143296,0,0,7
118160980,0,1,7
118178660,0,1,7
118196332,0,0,7
118214012,0,0,7
118231688,0,0,7
118249364,0,0,7
118267056,0,0,7
118284736,0,1,7
118302408,0,0,7
118320084,0,0,7
118337780,0,0,7
118355456,1,0,7
118373136,0,0,7
118390812,0,0,7
118408496,0,0,7
118426168,0,0,7
118443860,0,0,7
118461536,0,0,7
118479216,0,0,7
118496896,0,0,7
118514568,0,0,7
118532252,0,0,7
118549928,0,0,7
118567612,0,0,7
118585288,0,0,7
118602976,0,0,7
118620648,0,0,7
118638328,0,0,7
118656016,0,0,7
118673696,0,0,7
118691368,0,0,7
118709044,0,0,7
118726732,0,0,7
118744416,0,0,7
118762088,0,0,7
118779772,0,0,7
118797452,0,0,7
118815140,0,0,7
118832820,0,0,7
118850492,1,0,7
118868180,0,0,7
118885856,0,0,7
118903528,0,0,7
118921200,0,0,7
118938896,0,0,7
118956576,0,0,7
118974252,1,0,7
118991936,0,0,7
119009616,0,0,7
119027284,0,0,7
119044968,0,0,7
119062656,0,0,7
119080332,0,0,7
119098008,0,0,7
119115684,0,0,7
119133376,0,0,7
119151048,0,0,7
119168728,0,0,7
119186400,0,0,7
119204100,0,0,7
119221780,0,0,7
119239448,0,0,7
119257136,0,0,7
119274812,0,0,7
119292488,0,0,7
119310168,0,0,7
119327856,0,0,7
119345536,0,0,7
119363216,0,0,7
119380888,0,0,7
119398576,0,0,7
119416256,0,0,7
119433928,0,0,7
119451600,0,0,7
119469296,0,0,7
119486964,0,0,7
119504648,0,0,7
119522336,0,0,7
119540016,0,0,7
119557688,0,0,7
119575376,0,0,7
119593056,0,0,7
119610736,0,0,7
119628408,0,0,7
119646088,0,0,7
119663776,0,1,7
119681444,0,0,7
119699124,0,0,7
119716800,0,0,7
119734496,0,0,7
119752168,0,0,7
119769848,0,0,7
119787532,0,0,7
119805216,0,0,7
119822888,0,0,7
119840576,0,1,7
119858260,1,0,7
119875936,0,0,7
119893608,0,0,7
119911288,0,0,7
119928976,0,0,7
119946656,0,0,7
119964328,0,0,7
119982008,0,0,7
119999708,0,1,7
120017376,0,0,7
120035048,0,0,7
120052724,0,1,3
120070416,0,0,3
120088096,0,0,3
120105776,0,0,3
120123456,1,0,3
120141136,0,0,3
120158808,0,0,3
120176496,0,0,3
120194176,0,0,3
120211860,0,0,3
120229528,0,0,3
120247200,0,0,3
120264892,0,0,3
120282564,0,0,3
120300244,0,0,3
120317920,0,0,3
120335628,0,1,3
120353304,0,0,3
120370968,0,0,3
120388656,0,0,3
120406340,0,0,3
120424004,0,0,3
120441688,0,0,3
120459376,0,0,3
120477056,0,0,3
120494736,0,0,3
120512408,0,0,3
120530096,0,0,3
120547764,0,0,3
120565448,0,0,3
120583124,0,0,3
120600816,0,0,3
120618488,0,0,3
120636172,0,0,3
120653856,0,0,3
120671532,0,0,3
120689208,0,0,3
120706888,0,0,3
120724576,0,0,3
120742260,0,0,3
120759936,0,0,3
120777608,0,0,3
120795296,0,0,3
120812976,0,0,3
120830656,0,0,3
120848324,0,0,3
120866012,0,0,3
120883688,0,0,3
120901376,0,1,3
120919052,0,0,3
120936736,0,0,3
120954408,0,0,3
120972100,0,0,3
120989776,0,0,3
121007456,0,0,3
121025128,0,0,3
121042808,0,0,3
121060496,0,0,3
121078172,0,0,3
121095848,0,0,3
121113520,0,0,3
121131216,0,0,3
121148888,0,0,3
121166564,0,0,3
121184244,0,0,3
121201932,0,0,3
121219616,0,0,3
121237288,0,0,3
121254976,0,0,3
121272660,0,0,3
121290336,0,0,3
121308004,0,0,3
121325696,0,0,3
121343380,0,0,3
121361056,0,0,3
121378720,0,0,3
121396416,0,0,3
121414096,0,0,3
121431768,0,0,3
121449440,0,0,3
121467136,0,0,3
121484812,0,0,3
121502484,0,0,3
121520176,0,0,3
121537852,0,0,3
121555528,0,0,3
121573216,0,0,3
121590900,0,0,3
121608576,0,0,3
121626248,0,0,3
121643928,0,0,3
121661616,0,0,3
121679288,0,0,3
121696968,0,0,3
121714640,0,0,3
121732344,0,1,3
121750004,0,0,3
121767688,0,0,3
121785384,0,0,3
121803060,0,0,3
121820740,0,0,3
121838408,4,0,3
121856108,1,1,3
121873776,0,1,3
121891448,0,0,3
121909128,4,0,3
121926824,1,0,3
121944500,196,0,3
121964268,225,1,3
121984028,16,9,3
122002744,16,4,3
122021448,64,0,3
122040180,64,0,3
122058908,64,1,3
122077620,16,49,3
122097384,49,196,3
122118188,64,144,3
122138972,16,256,3
122159772,169,289,3
122181620,196,4,3
122201384,25,529,3
122222176,16,784,3
122242972,25,144,3
122263788,64,49,3
122283540,225,81,3
122304328,49,676,3
122325144,1,1936,3
122345944,9,484,3
122365704,9,9,3
122383376,4,25,3
122402092,16,400,3
122422892,144,144,3
122444728,16,484,3
122465540,361,1089,3
122488408,100,729,3
122510256,9,16,3
122528992,36,0,3
122547704,36,4,3
122566420,81,121,3
122587224,49,225,3
122608028,1,0,3
122625700,0,484,3
122645456,1,196,3
122665224,4,484,3
122684980,9,1521,3
122705780,4,64,3
122724496,1,1156,3
122745296,0,1681,3
122766100,16,289,3
122786912,0,9,3
122804588,16,0,3
122823300,0,484,3
122843056,49,784,3
122863868,16,256,3
122884660,1,36,3
122903388,16,0,3
122922108,16,64,3
122941860,1,784,3
122961616,4,256,3
122981372,1,144,3
123001144,4,784,3
123020892,25,169,3
123041696,1,100,3
123061464,4,361,3
123081220,0,25,3
123099940,4,100,3
123119704,16,9,3
123138420,9,16,3
123157148,4,0,3
123174812,49,4,3
123193548,1,256,3
123213300,81,1,3
123232020,1,9,3
123249704,16,361,3
123270500,4,64,3
123289216,16,1369,3
123311052,49,289,3
123331864,49,324,3
123352660,64,1024,3
123374496,0,900,3
123394264,25,49,3
123414028,16,4,3
123432732,9,400,3
123452508,100,2916,3
123475388,225,625,3
123497228,49,1,3
123515944,36,25,3
123535712,16,0,3
123554420,1,25,3
123573140,0,289,3
123592908,0,0,3
123610584,1,4,3
123628264,9,225,3
123648028,9,484,3
123667788,16,324,3
123688576,64,169,3
123709372,4,1156,3
123730188,4,676,3
123749932,0,100,3
123769696,25,4,3
123788424,100,81,3
123809204,121,1,3
123828980,25,144,3
123849788,1,16,3
123868504,1,121,3
123888264,1,441,3
123908012,1,196,3
123927788,0,0,3
123945464,4,16,3
123964180,16,16,3
123983944,9,36,3
124002664,0,9,3
124020340,0,4,3
124038016,36,256,3
124058816,225,25,3
124079608,64,400,3
124100420,4,100,3
124120180,81,121,3
124140968,25,324,3
124161784,36,4,3
124180504,144,16,3
124201296,49,196,3
124222096,4,576,3
124241860,121,961,3
124263704,289,625,3
124285532,49,16,3
124305288,49,144,3
124326096,256,3249,3
124348976,64,900,3
124369776,64,361,3
124390588,36,961,3
124411368,0,256,3
124431136,49,81,3
124450904,81,576,3
124471696,9,324,3
124491452,0,36,3
124510168,4,144,3
124529952,25,484,3
124550740,9,256,3
124570492,1,4,3
124588180,64,64,3
124607932,64,361,3
124628732,25,961,3
124649540,16,576,3
124670348,1,4,3
124688016,64,100,3
124708812,196,64,3
124729616,100,36,3
124750408,25,9,3
124769132,9,81,3
124787868,9,64,3
124806572,16,64,3
124826332,4,81,3
124845052,4,324,3
124864820,25,1444,3
124886652,49,841,3
124907452,100,1,3
124927220,36,529,3
124948016,36,1296,3
124969848,121,676,3
124991704,36,225,3
125012508,16,729,3
125033300,16,1089,3
125055148,9,225,3
125074904,4,25,3
125093616,16,49,3
125113384,1,81,3
125132108,36,841,3
125152900,121,1521,3
125175764,4,169,3
125195540,9,81,3
125214248,0,100,3
125234024,1,49,3
125252748,16,169,3
125273532,16,256,3
125294336,4,4,3
125312028,25,144,3
125332828,25,1,3
125351528,4,25,3
125370248,1,4,3
125387940,1,0,3
125405628,4,16,3
125424340,1,16,3
125443052,0,25,3
125461776,0,16,3
125480492,9,36,3
125499216,36,100,3
125520028,4,144,3
125539784,9,81,3
125558488,1,4,3
125576164,36,81,3
125595944,36,16,3
125615700,1,625,3
125635464,1,100,3
125655228,1,196,3
125674972,4,625,3
125694736,1,49,3
125713464,1,196,3
125733232,9,1,3
125750900,0,36,3
125769616,1,225,3
125789388,1,225,3
125809144,1,121,3
125828908,1,100,3
125848664,9,225,3
125868420,0,25,3
125887136,0,324,3
125906892,25,729,3
125927708,25,121,3
125948496,0,81,3
125967216,4,100,3
125986992,9,4,3
126004664,4,256,3
126024428,9,225,3
126044188,16,16,3
126063948,36,81,3
126083704,1,1,3
126101384,9,64,3
126120100,16,169,3
126140904,1,100,3
126160664,0,1,3
126178356,1,49,3
126197072,9,1,3
126214740,0,36,3
126233456,4,25,3
126252188,0,225,3
126271940,1,225,3
126291708,1,9,3
126309376,4,121,3
126329144,9,529,3
126348888,81,729,3
126369696,81,484,3
126390508,36,961,3
126411304,64,676,3
126432096,0,289,3
126451856,81,1024,3
126473700,4,36,3
126492420,36,100,3
126513228,4,9,3
126530900,0,81,3
126549612,16,49,3
126569364,36,1296,3
126591228,49,1681,3
126613048,64,0,3
126631776,1,289,3
126651544,9,256,3
126671300,0,676,3
126691060,9,441,3
126710820,16,196,3
126731628,25,100,3
126752408,36,144,3
126773204,25,256,3
126794020,9,49,3
126812740,0,1,3
126830424,1,1,3
126848108,4,0,3
126865784,1,0,3
126883460,25,16,3
126903216,25,36,3
126922980,0,64,3
126941704,25,225,3
126962500,4,100,3
126982268,0,121,3
127002028,25,100,3
127022816,0,36,3
127041528,0,25,3
127060264,16,4,3
127078976,16,169,3
127099784,49,289,3
127120584,16,0,3
127139304,9,289,3
127159056,0,961,3
127178816,0,100,3
127198588,4,36,3
127217296,0,9,3
127234976,9,784,3
127254748,4,441,3
127274496,1,100,3
127294260,4,225,3
127314020,4,169,3
127333792,25,9,3
127352504,0,49,3
127371208,25,324,3
127392016,0,196,3
127411780,81,144,3
127432576,49,121,3
127453392,4,36,3
127472092,36,324,3
127492896,9,225,3
127512660,0,121,3
127532424,100,25,3
127553216,4,1600,3
127574008,784,2304,3
127596892,144,1156,3
127619768,1,1024,3
127640568,144,961,3
127662416,121,841,3
127684264,25,1,3
127702984,1,841,3
127722740,36,441,3
127743540,4,100,3
127763292,1,36,3
127782008,36,961,3
127802804,169,3481,3
127825700,121,1024,3
127848596,0,0,3
127866272,4,144,3
127886016,64,841,3
127906804,324,841,3
127928664,64,64,3
127948416,9,324,3
127968168,0,784,3
127987944,1,361,3
128007716,9,1,3
128025372,0,49,3
128044104,0,441,3
128063860,9,16,3
128082580,1,0,3
128100256,1,9,3
128117948,0,144,3
128137696,25,25,3
128157468,16,225,3
128178248,0,841,3
128198028,0,361,3
128217784,49,49,3
128237536,81,121,3
128258340,1,121,3
128278092,49,16,3
128297860,49,49,3
128317628,25,0,3
128336332,36,64,3
128356096,64,1,3
128374820,0,144,3
128394580,4,289,3
128414332,16,64,3
128434092,9,25,3
128452824,1,9,3
128470496,1,64,3
128489216,1,36,3
128507952,1,4,3
128525628,4,64,3
128544340,9,289,3
128564100,1,256,3
128583860,0,324,3
128603620,1,100,3
128623376,4,16,3
128642108,9,25,3
128660820,1,49,3
128679528,0,25,3
128698252,0,36,3
128716980,1,64,3
128735700,0,4,3
128753388,1,49,3
128772104,1,36,3
128790816,16,256,3
128811624,9,225,3
128831372,4,169,3
128851152,9,1,3
128868824,9,81,3
128887540,49,36,3
128907300,1,36,3
128926024,1,9,3
128943696,0,100,3
128963452,4,400,3
128983220,0,64,3
129001940,0,16,3
129020660,1,0,3
129038348,16,169,3
129059152,25,289,3
129079944,4,144,3
129099700,0,36,3
129118432,1,64,3
129137140,1,289,3
129156888,4,81,3
129175624,4,100,3
129195384,25,400,3
129216176,16,121,3
129236976,0,9,3
129254660,9,36,3
129273384,0,169,3
129293140,16,361,3
129313956,1,4,3
129331616,36,324,3
129352412,36,400,3
129373216,25,961,3
129394020,100,1521,3
129416896,49,121,3
129437688,9,25,3
129456428,1,36,3
129475140,144,16,3
129495952,9,1,3
129513624,0,16,3
129532332,16,576,3
129553128,36,1089,3
129574976,100,784,3
129596824,0,289,3
129616584,0,1,3
129634244,0,81,3
129652980,0,49,3
129671700,1,36,3
129690420,16,36,3
129710188,1,64,3
129728900,4,36,3
129747620,1,4,3
129765300,25,324,3
129786100,16,225,3
129806892,25,0,3
129825616,9,64,3
129844344,9,81,3
129863072,9,0,3
129880748,4,9,3
129898416,1,25,3
129917140,1,81,3
129935852,0,144,3
129955624,1,144,3
129975380,9,256,3
129995140,16,484,3
130015932,16,289,3
130036744,4,1,3
130054428,0,100,1
130074176,0,169,1
130093944,0,36,1
130112660,0,16,1
130131384,1,49,1
130150108,1,1,1
130167776,1,121,1
130187544,9,196,1
130207288,16,49,1
130227056,16,9,1
130245784,9,49,1
130264504,0,49,1
130283220,25,289,1
130304020,4,81,1
130322748,9,0,1
130340424,9,196,1
130360180,25,361,1
130380984,0,49,1
130399708,49,36,1
130419460,25,289,1
130440260,25,81,1
130460020,9,0,1
130477688,0,0,1
130495372,1,1,1
130513060,4,25,1
130531768,0,121,1
130551532,49,0,1
130570256,36,144,1
130591068,1,36,1
130609776,36,9,1
130628500,81,9,1
130647228,0,0,1
130664892,9,9,1
130682576,0,1,1
130700248,1,9,1
130717940,4,0,1
130735616,0,16,1
130754340,0,4,1
130772028,9,16,1
130790740,49,144,1
130811532,25,121,1
130832328,9,1,1
130850020,0,64,1
130868740,4,196,1
130888504,4,81,1
130907228,4,1,1
130924908,0,25,1
130943624,25,4,1
130962332,64,16,1
130982100,1,64,1
131000824,1,9,1
131018500,4,0,1
131036192,1,4,1
131053860,0,0,1
131071544,1,1,1
131089216,64,4,1
131107940,256,0,1
131127708,64,1,1
131146416,1,9,1
131164092,16,16,1
131183864,1,64,1
131202580,4,64,1
131221296,16,0,1
131240028,0,16,1
131258740,0,144,1
131278508,4,225,1
131298252,1,289,1
131318020,1,36,1
131336736,9,16,1
131355456,0,36,1
131374188,4,361,1
131393940,1,169,1
131413696,0,36,1
131432412,1,49,1
131451148,1,49,1
131469860,0,36,1
131488584,1,9,1
131506256,4,484,1
131526016,1,1600,1
131546808,25,361,1
131567608,4,64,1
131586348,16,16,1
131606104,9,196,1
131625860,1,324,1
131645628,0,121,1
131665376,1,4,1
131683056,0,100,1
131702820,25,121,1
131723632,36,1,1
131742336,0,9,1
131760012,4,100,1
131779780,0,144,1
131799540,0,36,1
131818260,4,361,1
131838020,9,196,1
131857784,1,0,1
131875448,1,100,1
131895208,1,81,1
131913944,1,25,1
131932664,1,1,1
131950340,0,1,1
131968020,4,25,1
131986736,0,25,1
132005456,4,9,1
132023140,4,4,1
