Timestamp (micros),Sensor1 (mV),Sensor2 (mV)
51608,8836,11025
53864,4356,10000
56144,64,484
58248,0,100
60316,900,144
77292,4,729
92880,0,2401
109520,576,1681
129304,1,1
143860,441,4
160508,25,1
176084,121,0
192732,36,196
210412,25,49
227056,36,64
243692,9,1
258268,9,36
273856,1,49
289452,36,16
306092,64,25
322748,0,4
337304,4,9
351848,4,25
367460,9,4
382028,25,16
398668,9,0
413232,4,4
427772,4,36
443372,1,4
457936,0,4
472500,0,16
488100,4,25
503692,16,64
520348,4,1
534900,4,36
550508,25,1
566092,25,225
583780,100,289
602496,196,441
621212,36,289
638896,1,36
654496,16,4
670104,0,9
684656,36,144
702332,0,729
718976,121,361
737696,64,1764
756428,324,784
775140,4,9
789704,4,256
806328,49,4900
825036,4,2916
842724,144,729
861468,36,1936
880172,196,2025
899924,1156,0
917620,25,6561
936340,400,3969
956088,1,3364
973764,144,6400
993540,529,1225
1013300,0,16
1029932,9,841
1047612,0,1156
1066352,36,16
1084008,36,1369
1103772,484,1849
1124580,81,324
1143300,25,1444
1163056,36,25
1180740,36,64
1198432,81,225
1217144,0,81
1233784,100,64
1252512,0,36
1269140,9,529
1286812,196,729
1306564,4,289
1324268,36,196
1342980,4,16
1359612,0,121
1377288,36,1156
1397056,225,4624
1417856,576,1024
1438656,1,144
1456356,81,841
1475048,400,1156
1495852,25,196
1514584,1,0
1530180,1,9
1545780,9,49
1562420,1,289
1580096,121,49
1598816,25,144
1617544,1,441
1635224,25,169
1653948,25,16
1671616,1,81
1688240,4,1936
1706968,100,4356
1727788,169,100
1747536,4,289
1765220,16,81
1782908,9,169
1800576,9,196
1818248,16,25
1835936,0,4
1851536,0,16
1868188,0,4
1883776,36,9
1900420,4,1
1916028,4,81
1932668,1,121
1950340,0,4
1965932,0,0
1981540,25,16
1999216,16,9
2015856,0,4
2031460,0,0
2047060,9,25
2063700,9,25
2080336,25,324
2099060,64,121
2117796,16,225
2136496,25,1369
2156244,100,1156
2177060,49,49
2194740,4,25
2211384,25,144
2230100,1,196
2247772,100,324
2267532,100,1024
2288348,9,1024
2307056,36,1024
2326828,49,529
2345544,16,484
2364260,16,324
2382992,1,64
2399632,4,25
2416260,25,841
2434976,49,1849
2454740,64,961
2473456,36,144
2492168,4,729
2509864,49,2401
2529628,16,36
2547304,4,289
2564980,16,256
2583708,36,729
2602412,36,400
2621148,1,289
2638812,25,729
2657548,361,841
2677300,100,256
2697056,1,49
2713708,36,0
2730344,0,529
2748028,169,529
2767772,81,36
2785468,1,36
2802096,0,121
2819776,16,1
2836412,16,4
2853068,16,0
2869692,36,64
2887380,1,16
2904020,9,400
2921696,9,529
2939372,0,4
2954984,4,196
2972648,0,9
2988268,25,4
3004892,16,676
3023612,36,1600
3043380,36,324
3062100,0,16
3078732,25,4
3095380,16,1
3112028,9,36
3128660,0,64
3145292,16,361
3164004,49,900
3182736,81,196
3201460,1,1
3217056,4,0
3232660,4,1
3248264,4,25
3264900,1,100
3282576,4,25
3299216,0,1
3314824,4,9
3330432,1,25
3347056,0,4
3362656,1,169
3380352,4,169
3398020,1,64
3414656,4,324
3432340,9,400
3450024,9,196
3467688,16,4
3484336,0,4
3499936,0,36
3516588,9,1
3532188,0,1
3547780,4,121
3565464,25,49
3583144,1,1
3598736,0,0
3614340,4,16
3630988,4,16
3647620,4,361
3665296,4,81
3681940,0,36
3698576,9,9
3714180,9,4
3729788,0,49
3746424,4,144
3764096,25,81
3781784,1,4
3797380,4,121
3815048,0,64
3831704,0,1
3847308,0,0
3862912,0,49
3879532,0,64
3896176,0,0
3911784,16,16
3929468,9,256
3947132,49,2401
3966888,225,2116
3987696,81,225
4006432,1,9
4022020,1,0
4037620,36,100
4056348,25,25
4074032,4,1
4089624,4,36
4106260,0,121
4123948,16,16
4141620,1,0
4157208,0,0
4172828,4,4
4188432,4,0
4204016,0,4
4219620,1,25
4236252,16,121
4254988,36,256
4273712,9,25
4290348,1,25
4306980,4,100
4324660,0,9
4340256,0,16
4356900,16,0
4373544,0,25
4390188,4,49
4406824,0,36
4423464,1,9
4439072,1,1
4454664,9,36
4471304,0,49
4487936,49,81
4505616,16,9
4522260,0,1
4537860,0,9
4553452,1,1
4569052,1,81
4585696,1,81
4602340,0,256
4620012,25,1156
4639772,64,900
4658492,36,225
4677220,9,4
4692820,0,289
4710508,9,529
4728188,9,0
4743780,0,144
4761460,0,361
4779140,9,529
4796820,25,169
4815528,9,36
4832164,49,256
4850904,169,841
4870652,121,324
4890416,1,16
4907064,4,64
4923712,9,16
4940336,1,81
4956988,0,16
4973628,9,36
4990264,16,121
5008984,0,36
5025632,36,576
5044348,36,225
5063060,4,4
5078648,0,16
5095300,0,1
5110904,9,9
5126500,16,144
5145220,1,1
5160816,0,256
5178500,9,100
5196196,1,121
5213856,36,121
5232576,36,225
5251312,25,1
5267924,100,1024
5288732,144,729
5308512,4,64
5325148,0,9
5340740,9,36
5357376,49,0
5374012,0,144
5391704,49,676
5410416,9,576
5428104,0,961
5445776,25,1089
5465540,9,25
5482172,64,196
5500896,1,64
5517548,4,9
5533128,16,100
5551860,9,49
5568504,0,1
5584120,4,9
5599688,1,2304
5618412,289,5776
5639220,256,784
5658984,4,441
5676652,36,961
5695380,1,16
5712024,0,256
5729704,0,361
5747372,9,441
5765048,4,0
5780664,1,100
5798344,16,784
5817060,4,49
5833688,0,256
5851388,9,121
5869060,9,16
5885696,49,484
5904432,196,361
5924180,49,9
5940824,0,1
5956432,9,0
5972028,1,100
5989704,4,256
6007384,4,25
6024020,9,484
6041708,1,100
6059392,4,81
6076020,4,100
6093704,4,144
6111396,9,9
6126984,1,4
6142572,1,225
6160252,4,121
6177940,16,324
6196644,196,4
6214336,4,2304
6233044,64,841
6251784,9,49
6268408,81,361
6287136,16,400
6305864,36,625
6324576,169,441
6344348,49,400
6363052,0,784
6380740,4,1369
6399452,169,3025
6420264,361,576
6440024,9,361
6457700,81,3025
6477452,361,4096
6498244,4,1089
6516980,64,0
6533624,16,16
6551296,4,225
6568976,36,16
6586668,1,16
6603312,25,484
6622024,0,81
6638668,9,441
6656344,49,729
6675044,225,529
6694812,225,144
6714580,9,25
6731224,4,225
6748900,9,16
6765532,36,784
6784268,0,576
6801948,0,9
6817532,4,441
6835216,49,900
6853944,81,529
6872656,0,441
6890332,1,1936
6909056,100,3136
6929848,49,676
6948568,4,16
6965212,0,121
6982912,4,289
7000580,9,9
7016172,1,36
7032816,1,100
7050500,25,361
7069228,36,289
7087936,4,25
7104584,1,9
7120184,1,36
7136820,1,25
7153460,4,16
7170096,0,16
7186752,4,9
7202348,0,121
7220028,9,0
7235636,4,9
7251228,9,121
7268896,25,81
7286580,4,0
7302192,1,16
7318828,0,121
7336492,1,81
7353136,1,9
7368744,1,4
7384336,0,4
7399940,9,4
7415536,0,49
7432176,1,9
7447780,9,49
7464408,9,9
7480016,16,16
7497688,16,100
7516424,0,256
7534104,1,196
7551776,0,9
7567376,4,49
7584028,4,324
7601704,36,64
7619384,1,0
7634976,16,1
7651620,4,100
7669300,9,81
7685940,1,36
7702584,36,81
7720256,0,1
7735860,1,64
7752500,1,81
7769148,1,4
7784744,0,1
7800348,9,64
7816968,0,36
7833620,4,0
7849216,0,25
7865856,1,16
7882492,1,0
7898096,0,25
7914748,0,64
7931380,0,16
7948020,0,100
7965692,9,9
7981316,16,4
7997940,0,1
8013536,25,64
8031204,9,64
8047860,0,121
8065532,1,100
8083220,9,100
8100912,9,169
8118580,9,49
8135220,0,9
8150836,1,4
8166424,25,1
8183068,0,1
8198660,1,9
8214252,1,256
8231928,49,961
8250660,49,64
8268340,16,81
8286020,49,100
8304740,4,81
8321384,1,25
8338024,9,49
8354656,16,576
8373384,25,1600
8393144,49,361
8411848,9,81
8428488,4,256
8446176,1,1156
8464900,36,1764
8484656,16,225
8503384,25,1
8520028,25,100
8538736,0,576
8556412,0,289
8574112,1,16
8590744,4,4
8606340,0,64
8622988,9,1
8638588,0,1
8654192,9,225
8671864,1,4
8687460,16,196
8706192,1,1
8721780,9,676
8739460,4,961
8757140,9,121
8774816,4,1521
8793532,121,3844
8814340,121,576
8834116,25,1
8850744,16,9
8867372,4,324
8885056,1,961
8902736,49,289
8921472,25,16
8939148,4,0
8954748,1,4
8970348,0,64
8986996,9,4
9002572,0,256
9020252,16,144
9038992,1,361
9056668,4,225
9074336,25,4
9090976,0,324
9108656,64,361
9127372,64,9
9144024,1,324
9161700,0,484
9179380,9,324
9197052,49,36
9214744,1,1
9230344,1,1
9245940,1,49
9262580,1,25
9279220,0,484
9296904,9,64
9313544,4,49
9330184,16,0
9346824,9,25
9363452,9,16
9380096,0,16
9396740,4,25
9413380,9,196
9431060,4,144
9448740,1,16
9465384,1,0
9480972,0,4
9496584,0,1
9512200,1,225
9529860,1,441
9547532,0,9
9563128,36,729
9581856,16,441
9600584,9,0
9616176,4,81
9632816,4,0
9648420,0,64
9665080,1,9
9680660,1,25
9697296,36,441
9716016,100,1369
9736820,100,729
9756572,49,64
9774268,16,1
9790892,1,0
9806504,0,49
9823132,9,289
9840820,1,121
9858500,4,25
9875132,0,64
9891776,16,1
9908416,1,0
9924016,9,324
9941688,0,225
9959376,4,9
9974984,9,4
9990576,0,144
10008256,1,361
10026980,9,49
10044664,1,25
10062336,25,441
10082096,16,121
10101856,0,121
10120580,0,1024
10140336,25,1521
10161132,16,529
10180892,4,1369
10200648,25,2304
10221452,144,1296
10243304,196,256
10264104,36,676
10283848,144,784
10304668,144,81
10324408,121,256
10345216,256,4
10363948,25,81
10382664,225,36
10402420,81,9
10420100,49,0
10437788,16,0
10455460,1,25
10473140,1,0
10489768,0,4
10506436,196,4
10525136,676,25
10544896,256,16
10564672,1,16
10582352,1,9
10598968,4,0
10615612,25,0
10633304,9,1
10649956,0,1
10666580,9,1
10683224,49,0
10700904,100,1
10719624,16,9
10737304,49,0
10754976,25,25
10773708,4,16
10791380,16,0
10809060,0,9
10825700,25,9
10843380,4,9
10860012,0,16
10877688,25,4
10895380,81,1
10913056,64,4
10930728,0,0
10947384,64,4
10965068,169,1
10983788,49,0
11001456,0,0
11018100,9,1
11034748,4,1
11051384,4,0
11068016,4,0
11084660,4,0
11101296,0,25
11118976,36,25
11137708,4,4
11154332,144,0
11173068,256,4
11191772,0,4
11208416,81,0
11226088,4,0
11242744,16,0
11260412,1,0
11277060,4,1
11293692,9,0
11310336,16,0
11328032,1,1
11344656,9,4
11361300,9,0
11377944,289,0
11396656,225,36
11416420,1,100
11435148,9,16
11452828,4,0
11469456,100,4
11488168,0,1
11504816,289,4
11523540,36,0
11541216,0,9
11557860,49,0
11575540,256,0
11594268,36,4
11611944,25,25
11630656,64,0
11648348,4,4
11664976,16,0
11682660,4,4
11699312,9,9
11715948,1,16
11733616,4,4
11750260,36,4
11767940,1,25
11785624,4,1
11802260,169,1
11820972,400,1
11839712,4,16
11857380,121,4
11876104,36,4
11893788,1,25
11911456,36,0
11929140,144,25
11948904,324,4
11967632,49,9
11985300,64,16
12004012,0,0
12020656,64,25
12039388,100,9
12058100,36,1
12075788,225,4
12094512,529,0
12113224,64,16
12131932,0,9
12148580,121,0
12167308,256,0
12186032,4,4
12202664,81,9
12220340,1,1
12236980,25,0
12254660,25,0
12272340,0,4
12288968,1,1
12305620,9,0
12322252,49,4
12339936,81,1
12357616,169,0
12376344,144,9
12395060,256,25
12414824,81,4
12432504,9,9
12449140,36,4
12466816,169,0
12485532,0,9
12502192,0,9
12518828,121,1
12537540,36,1
12555212,100,9
12573944,225,9
12592668,144,16
12612420,169,1
12631136,144,9
12649864,1,16
12667540,100,0
12686256,16,1
12703948,1,0
12720576,49,1
12738260,16,0
12755932,100,0
12774668,256,1
12793380,81,4
12811056,169,0
12829784,529,9
12848500,225,36
12868260,36,16
12886972,1,0
12903628,36,0
12921304,25,0
12938980,49,1
12956660,49,1
12974336,100,0
12993072,25,0
13010748,9,1
13027384,16,1
13045064,64,0
13062740,0,4
13079384,16,0
13097068,9,0
13113704,9,0
13130340,121,0
13149060,25,1
13166736,9,16
13184424,225,1
13203144,576,0
13221856,225,25
13241628,16,9
13259308,100,0
13278020,225,9
13296744,400,25
13316516,324,16
13336264,64,36
13354976,81,25
13373704,49,1
13391388,1,4
13408016,64,9
13425700,100,0
13444436,1,1
13461056,1,1
13477692,81,4
13495388,225,4
13514100,144,1
13532812,16,1
13550492,100,1
13569224,100,4
13587944,225,9
13606656,144,1
13625380,36,9
13643076,144,1
13661788,484,4
13680496,0,25
13698188,49,9
13715864,36,1
13733528,256,0
13752256,64,4
13769948,0,0
13786580,1,0
13803220,49,1
13820896,4,4
13837536,0,16
13855212,4,0
13871860,64,0
13889532,196,9
13908272,121,9
13926980,100,64
13946744,16,1
13964428,169,4
13983136,576,1
14001860,576,9
14020572,225,16
14040344,4,4
14056984,400,0
14075696,576,9
14094432,25,16
14113148,49,1
14130824,0,9
14147460,1,1
14164108,1,0
14180748,100,0
14199464,64,1
14217144,36,4
14234820,324,9
14253540,225,16
14273292,64,25
14292028,25,9
14309708,4,9
14326328,0,9
14342972,1,4
14359632,9,0
14376264,9,0
14392904,49,0
14410580,121,0
14429304,1,9
14445948,16,9
14463616,36,1
14481288,100,0
14500024,25,16
14518748,196,1
14537460,324,4
14556188,4,9
14572828,4,1
14589468,196,1
14608180,16,4
14625872,25,9
14643548,1,1
14660180,16,1
14677856,64,4
14695544,484,1
14714268,64,16
14732980,49,9
14750652,1,0
14767300,9,0
14783944,4,0
14800580,121,1
14819292,256,4
14838016,169,36
14857780,4,1
14874416,16,0
14892104,121,0
14910820,841,1
14929536,64,25
14948252,25,16
14966980,64,9
14984656,64,0
15002328,196,9
15021048,121,0
15039780,25,4
15057456,81,4
15075144,1,16
15092816,1,16
15110496,0,1
15127132,4,0
15143780,100,1
15162504,256,9
15181216,784,16
15200980,729,16
15220732,36,64
15239472,225,16
15259220,169,36
15278972,256,16
15298744,49,4
15316420,324,49
15336184,289,9
15354904,9,4
15371544,0,4
15388184,25,0
15405856,144,1
15424588,64,1
15442268,9,1
15458900,49,0
15476580,49,9
15494268,9,4
15510900,1,4
15527528,16,0
15545212,256,1
15563944,121,1
15582668,1,9
15599300,25,1
15616976,81,0
15634676,100,1
15653368,81,16
15672096,49,1
15689792,49,9
15707464,361,1
15726180,225,36
15745936,16,9
15763628,1,1
15780268,1,1
15796888,16,0
15814576,169,1
15833308,36,1
15850968,100,4
15869692,36,0
15887392,49,1
15905072,36,1
15922732,16,16
15941460,81,0
15959148,196,1
15977864,289,0
15996576,81,9
16014256,49,16
16032988,121,1
16051696,64,9
16069376,25,25
16088096,729,0
16106816,484,25
16126572,36,25
16145292,25,0
16162980,16,4
16180652,256,0
16199388,441,9
16218096,729,36
16237860,64,25
16256580,169,25
16276336,256,0
16295068,400,16
16314808,64,16
16333528,64,64
16352248,169,1
16370992,36,9
16388664,16,4
16406340,0,1
16422988,64,0
16440668,4,4
16457288,16,16
16476028,144,4
16494756,49,0
16512420,100,0
16531132,4,0
16547764,0,36
16565468,4,64
16583148,9,16
16600820,25,0
16618488,100,9
16637228,4,4
16653868,121,1
16672584,25,0
16690268,100,1
16708992,400,4
16727696,784,25
16747444,361,25
16767228,0,25
16784892,25,9
16802568,9,0
16819216,81,0
16836904,289,1
16855624,1,9
16872252,484,4
16890996,841,4
16909696,289,25
16929460,1,16
16947132,49,0
16964832,36,1
16982512,9,1
16999140,25,0
17016816,121,0
17035548,196,0
17054260,9,16
17071940,1,1
17088588,121,0
17107300,196,25
17127064,4,25
17144744,81,1
17162424,144,1
17181144,100,1
17199868,0,1
17216488,169,0
17235228,576,9
17253924,196,9
17272660,81,4
17290340,289,4
17309060,81,9
17326740,4,4
17343380,4,1
17360020,64,0
17377712,196,1
17396420,121,9
17415128,81,9
17432824,25,4
17450488,81,0
17468168,121,0
17486912,25,4
17504588,225,4
17523292,49,0
17540988,4,9
17557632,0,9
17574268,1,4
17590908,0,1
17607528,36,0
17625216,64,1
17642900,36,0
17660580,25,1
17678256,289,0
17696984,400,1
17715700,36,25
17734408,121,4
17753140,484,0
17771860,81,16
17790584,1,36
17808260,16,1
17825936,16,4
17843616,81,0
17861296,225,0
17880004,25,9
17897700,0,25
17915384,49,1
17933056,289,4
17951780,225,9
17970512,25,1
17988176,196,1
18006900,144,9
18025624,0,16
18043308,144,1
18062020,361,1
18080732,100,16
18100508,0,0
18117136,1,1
18133776,0,1
18150420,9,0
18167064,9,0
18183712,9,4
18200340,144,4
18219072,400,0
18237788,400,16
18257540,64,36
18276256,1,9
18292904,36,4
18310580,9,4
18327220,49,0
18344904,1,0
18361536,100,4
18380260,25,9
18397936,25,16
18416668,25,0
18434356,4,1
18450988,64,1
18468660,0,36
18486348,64,4
18504032,9,4
18520652,529,1
18539380,81,16
18558104,25,16
18576816,9,4
18593456,36,1
18611136,4,1
18627780,9,9
18644420,49,0
18662096,64,25
18680812,16,0
18698516,4,1
18715128,196,16
18734892,361,0
18753624,400,25
18773388,225,9
18792104,25,4
18809784,16,4
18827464,0,1
18844096,25,0
18861784,144,1
18880500,1,0
18897140,81,0
18914816,100,9
18933540,81,1
18951224,4,0
18967860,225,0
18986576,25,25
19005300,1,4
19021936,4,4
19038576,16,0
19056260,9,4
19072904,81,1
19090588,0,4
19107224,225,0
19125948,441,1
19144656,441,36
19164416,16,64
19183152,16,9
19200820,25,4
19218512,0,4
19235148,169,1
19253860,0,0
19270500,121,1
19289216,0,4
19305860,9,4
19322496,0,1
19339140,36,4
19356820,100,0
19375540,4,4
19392176,16,9
19409844,49,0
19427540,1,0
19444184,0,0
19460824,49,0
19478496,0,1
19495140,64,0
19512816,16,4
19530500,64,1
19548184,256,0
19566904,81,9
19584580,1,4
19601220,9,0
19617864,100,0
19636580,36,4
19654260,1,1
19670900,9,1
19687552,16,1
19705220,16,1
19722896,9,1
19739536,0,4
19756184,361,0
19774900,1296,9
19794656,625,36
19814432,625,49
19834184,900,16
19853940,361,49
19873688,256,36
19893468,289,1
19912168,144,16
19931928,25,16
19950660,0,0
19967308,9,0
19983940,4,1
20000576,144,0
20019308,169,1
20038028,49,4
20055700,100,0
20074416,0,16
20092104,9,1
20108748,81,1
20126412,100,4
20145136,16,4
20162824,100,1
20181544,196,1
20200264,9,4
20216908,9,0
20233544,9,9
20250168,144,0
20268900,169,0
20287620,16,16
20306344,64,0
20324016,324,0
20342736,169,25
20362504,16,9
20380180,121,0
20398912,484,1
20417624,256,4
20436344,9,25
20454008,9,4
20470660,36,0
20488352,49,4
20506016,256,0
20524740,49,25
20543452,25,4
20561148,81,1
20578824,0,0
20595460,25,1
20613140,289,4
20631860,25,9
20649544,25,1
20667212,25,0
20684912,225,0
20703624,100,4
20722332,1,4
20738972,1,1
20755620,25,0
20773296,81,0
20790980,16,4
20808660,1,1
20825312,64,4
20842980,81,1
20860644,64,4
20878324,64,0
20896024,9,1
20912664,100,4
20931376,121,4
20950108,25,16
20968816,49,0
20986504,25,1
21004176,1,16
21021856,16,0
21039536,16,1
21057220,1,4
21073856,49,0
21091540,49,0
21109212,49,4
21126900,1,1
21143528,4,0
21160188,36,0
21177848,100,0
21196568,81,4
21214268,0,4
21230904,256,4
21249620,361,1
21268328,4,49
21286028,100,9
21304752,4,4
21321380,25,1
21339044,64,0
21356744,121,1
21375460,36,1
21393136,100,1
21411860,9,1
21428508,441,0
21447208,1024,0
21466976,900,9
21485684,400,49
21505464,16,36
21524180,4,4
21540812,1,0
21557468,4,1
21574096,36,0
21591780,4,4
21608416,16,1
21626096,25,0
21643772,196,0
21662484,64,1
21680176,64,9
21697848,1521,0
21717608,196,36
21737364,3481,196
21759216,4096,64
21780000,1521,400
21801856,1,1
21818496,16,1
21836184,3844,1
21855928,2704,9
21875680,0,49
21893372,9409,64
21914164,11025,121
21937036,3969,900
21958876,15625,0
21979680,7225,2209
22002560,1600,784
22024396,10609,225
22047276,20164,841
22070180,961,1024
22092012,11449,324
22114896,4356,4
22134632,11664,121
22157528,5041,1
22177296,49,484
22197036,27225,169
22219932,0,676
22238644,1444,3844
22261540,2116,324
22283376,1089,484
22305200,12769,144
22328096,36,676
22347852,2809,4
22367604,12996,169
22390484,3844,361
22412336,8100,900
22434168,7396,441
22456000,2209,361
22477852,5329,25
22498656,6561,169
22520484,961,256
22541292,256,729
22562104,4,0
22578732,4,4
22595372,676,144
22616180,1369,1
22635928,21025,81
22657752,4096,900
22679608,6084,1600
22702492,10000,225
22725356,2025,484
22747196,100,0
22765920,400,81
22785684,3844,25
22806484,7056,324
22828316,14884,400
22851200,0,256
22869908,15376,2025
22893848,1849,3249
22916720,8836,1
22936480,9,576
22955220,484,25
22974968,16384,0
22995772,10404,1296
23019680,2916,676
23041544,3249,25
23062320,49,64
23081060,100,4
23099768,169,64
23119528,225,25
23139276,1089,256
23161124,2304,25
23181924,289,484
23202724,3481,0
23222488,400,49
23242256,400,49
23262028,0,1
23278656,256,100
23299460,361,4
23318176,784,4
23336884,1764,256
23358748,3136,400
23380576,2500,289
23402396,5041,729
23424248,5476,529
23446088,3249,196
23467928,36,484
23487700,1521,324
23509528,361,25
23529292,4225,9
23549048,1849,576
23570900,4,289
23589632,1936,1
23609372,12321,121
23632252,1681,529
23654104,4,169
23672816,81,16
23691552,784,144
23712336,3844,169
23734160,4900,16
23754976,6241,529
23776816,1,729
23795528,2601,64
23816328,9,36
23834004,5776,1
23853764,10201,16
23875608,3249,1296
23898488,17161,16
23920328,4225,1936
23943220,64,400
23962992,1024,9
23982728,961,121
24003520,49,169
24023292,2304,529
24045128,5929,289
24066964,7056,961
24088816,14161,81
24110648,29929,400
24133524,1089,1681
24156416,0,400
24175132,8993,784
24196960,7744,2401
24219840,6400,1521
24242732,81,25
24261456,484,16
24281200,3600,484
24303052,3844,1
24322812,900,576
24343616,576,49
24363376,4,100
24382092,400,169
24402872,12544,25
24424736,17689,1
24445520,6561,900
24467368,225,289
24488180,9,1
24504816,6561,49
24525612,2116,324
24547464,9,144
24566184,196,0
24584892,225,9
24603608,784,16
24623388,1225,144
24645216,49,36
24663940,1936,4
24683696,1444,16
24704496,1225,81
24725284,1600,100
24747140,784,49
24766880,1089,49
24787692,961,1
24806416,1600,100
24828248,4761,0
24848004,900,484
24868804,2704,169
24890648,9409,16
24911444,10201,324
24934312,441,676
24955136,49,324
24974896,81,16
24993616,4489,9
25013380,196,36
25033128,7569,256
25054960,13456,196
25077856,1089,1369
25100724,13924,64
25122568,11881,256
25145464,961,841
25166264,1,324
25184980,144,100
25205788,25,0
25223460,961,100
25244264,36,16
25262968,2025,81
25283784,529,81
25303532,121,25
25323300,81,100
25343052,361,0
25361776,1444,25
25382564,1936,144
25404396,3025,121
25426260,484,25
25445996,2304,144
25467840,20449,1
25488644,0,784
25507368,18769,1444
25531276,11664,961
25554180,0,676
25572896,27556,1521
25596796,1024,2025
25619700,1,225
25638420,676,1
25657128,5041,196
25678972,400,169
25699768,3600,144
25721616,784,9
25740332,144,81
25760100,900,0
25778812,529,16
25798556,144,25
25818332,36,4
25836008,1849,4
25855784,1521,49
25876572,256,196
25897380,2209,25
25918160,961,81
25937928,81,289
25957704,4,1
25974320,676,25
25994084,5625,49
26014892,676,144
26035684,2304,169
26057532,16,16
26076260,64,36
26094976,2116,1
26114724,9409,81
26135516,9025,289
26157364,1369,256
26179200,121,324
26199996,3600,256
26221864,2601,1
26241596,729,289
26262412,9,9
26279068,324,81
26298824,49,100
26318568,36,0
26336236,2025,81
26357064,441,16
26376816,1024,144
26398660,729,36
26418420,64,64
26437136,289,16
26456900,49,9
26474572,361,16
26494348,441,16
26514080,1156,81
26534884,9801,4
26554656,7921,576
26576496,841,676
26597292,196,196
26618108,81,225
26637868,400,144
26658640,1764,4
26678412,576,121
26699208,324,49
26718984,324,4
26737692,81,1
26755372,64,25
26774084,1156,9
26793840,1024,4
26813612,4624,25
26834412,4356,625
26856240,4761,400
26878104,49,81
26896824,361,225
26917600,169,16
26937368,2116,25
26958180,9,1
26974820,1681,49
26995604,169,25
27015376,400,81
27035124,841,4
27053860,841,16
27073600,361,49
27093376,676,64
27113136,100,16
27132880,1849,9
27152652,2401,4
27172420,2704,289
27194240,196,225
27215060,729,49
27234808,529,36
27254568,2401,121
27276424,1444,25
27297208,1764,81
27318008,196,64
27337788,169,196
27358584,1849,0
27378328,2116,121
27400172,9,64
27417864,169,16
27437612,144,0
27456336,64,9
27474020,196,9
27492740,25,0
27510420,81,0
27528100,121,1
27546832,361,4
27565544,1,0
27582188,400,9
27600888,2704,64
27621704,1600,36
27642504,256,225
27663272,5776,81
27684092,2304,169
27705936,3136,289
27727756,0,144
27746476,23716,1089
27770400,7569,2704
27793288,27225,0
27814092,324,1296
27835920,841,0
27854648,20736,9
27875428,400,1764
27897272,14400,361
27920156,15876,1521
27944092,13924,64
27965916,14161,36
27987764,0,961
28006492,21025,2116
28030396,19881,3364
28054324,1156,64
28075128,6084,961
28096972,484,256
28117764,3721,841
28139628,729,9
28158336,400,729
28179124,441,100
28199920,21025,144
28222808,32761,1225
28246720,5329,1936
28269612,225,225
28290408,1444,121
28312248,3136,400
28334092,11449,1
28354876,17689,121
28377760,1369,2025
28400628,3364,576
28422488,3600,256
28444336,2500,36
28465120,841,0
28483848,49,361
28503612,676,4
28522332,49,324
28542100,5776,1
28561840,13924,169
28584732,5041,64
28605540,729,256
28626336,961,25
28646096,1849,324
28667944,6400,1
28687684,4356,441
28709548,1681,121
28731372,1,9
28748016,484,121
28768808,441,25
28788568,3249,81
28809368,17161,400
28832244,29584,841
28855120,24336,1024
28879040,32041,1764
28902964,0,1936
28922712,0,2401
28942500,9801,1936
28965368,64,1089
28986180,784,16
29005944,256,169
29026740,441,9
29045448,1521,1
29065204,256,16
29084988,324,100
29105772,625,16
29125532,36,25
29144248,484,49
29164020,1296,1
29183764,9604,49
29204576,22201,81
29226412,10000,1936
29250324,10609,1089
29274240,9,256
29292964,9,729
29311688,576,0
29330412,3136,36
29351220,12544,16
29373036,0,1
29389692,17956,1600
29413612,1296,1600
29436480,1024,16
29457284,3969,4
29477044,529,361
29497844,169,196
29518644,1681,0
29538428,9409,1
29558168,484,529
29578964,2304,1600
29601852,1156,4
29621612,7396,256
29643440,23409,0
29664240,32041,961
29687128,3481,2209
29710012,2025,441
29731860,1225,1
29751628,1296,0
29771372,961,100
29792148,6561,324
29814020,1521,256
29835864,441,484
29856660,36,100
29876408,1,1
29893048,2704,64
29913860,1296,0
29933616,2025,100
29955456,6241,289
29977268,441,196
29998096,2116,144
30019932,2916,1
30039684,529,144
30060476,1,100
30079208,1156,25
30100020,1600,9
30119756,3025,289
30141624,3721,225
30163456,529,100
30184260,7396,49
30205052,30276,196
30227924,28224,1521
30251840,18769,1764
30275768,0,1024
30295532,2916,441
30317380,1936,169
30339208,8100,196
30361052,2500,225
30382884,6400,1296
30405772,17956,676
30428648,169,900
30449464,1369,484
30471296,1444,144
30493128,13689,64
30514960,8281,529
30536796,6561,676
30558652,5329,64
30579448,576,625
30600256,18496,4
30621056,17424,484
30643916,3136,2116
30666804,5329,36
30687620,12996,16
30709456,1,144
30728164,529,529
30748972,1369,4
30768736,4225,25
30789528,9,289
30808256,3721,144
30830096,4225,64
30850900,2304,81
30871700,100,36
30891452,0,144
30910172,676,0
30928892,676,49
30948660,121,4
30967372,121,16
30987136,529,4
31005868,841,36
31025616,121,144
31046420,49,36
31065144,1,1
31081776,1369,16
31102580,2809,1
31122332,841,49
31142104,25,25
31160820,4,1
31177460,81,4
31195140,36,4
31212812,16,25
31231532,1,1
31248172,0,0
31264828,16,4
31282500,64,1
31300180,36,9
31317860,4,9
31334508,9,4
31351148,0,0
31367788,25,4
31385456,0,9
31402100,16,0
31419792,0,1
31436428,64,0
31454108,25,1
31471784,100,0
31490492,100,0
31509212,841,0
31527916,225,16
31547700,1,16
31565368,100,0
31584092,169,0
31602828,4,1
31619464,1,4
31636104,9,0
31652740,25,4
31670416,1,36
31688108,16,1
31705776,36,4
31723448,81,4
31741152,121,9
31759860,4,16
31777540,4,4
31794160,196,0
31812908,0,25
31830576,49,16
31849288,9,16
31866988,25,1
31884668,225,4
31903376,81,0
31921052,9,9
31937696,16,9
31955376,0,1
31972012,25,0
31989696,1,0
32006340,49,0
32024012,81,0
32041700,0,1
32058332,49,1
32076028,0,1
32092652,4,0
32109304,9,1
32125936,25,0
32143624,1,4
32160256,4,0
32176900,64,1
32194580,144,0
32213308,64,9
32230988,196,16
32250740,1024,1
32270504,225,49
32290260,9,25
32307928,4,0
32324576,81,0
32342260,196,1
32360976,25,25
32379696,9,9
32396340,25,0
32414024,4,1
32430656,0,4
32447300,9,1
32463936,0,0
32480576,36,0
32498256,16,1
32515940,25,0
32533628,1,1
32550268,225,0
32568980,49,9
32586656,36,9
32604348,9,1
32620980,9,0
32637620,4,1
32654240,64,0
32671956,324,1
32690660,144,1
32709372,36,4
32727064,100,1
32745780,1,4
32762420,0,0
32779056,25,1
32796736,81,0
32814428,81,1
32832100,4,4
32848744,1,1
32865392,9,4
32882024,1,0
32898652,0,0
32915296,16,1
32932980,36,0
32950672,25,9
32968340,256,0
32987048,64,16
33005788,1,1
33022420,4,1
33039056,16,0
33056732,49,0
33074428,25,0
33092096,0,4
33108740,0,0
33125372,16,1
33143068,25,1
33160748,0,4
33177380,16,0
33195068,25,1
33212740,4,0
33229376,49,0
33247048,0,0
33263700,1,1
33280344,36,0
33298020,16,1
33315692,25,0
33333388,4,4
33350016,0,0
33366648,0,0
33383292,1,1
33399948,4,1
33416592,36,4
33434260,121,1
33452972,256,9
33471700,36,9
33489380,36,9
33507060,49,0
33524740,9,9
33541380,0,1
33558004,49,0
33575696,36,1
33593392,81,1
33611068,196,1
33629784,289,9
33648504,529,1
33667228,144,9
33685936,49,16
33704664,1,0
33721292,100,1
33740012,81,0
33757700,16,4
33775388,4,1
33792012,49,0
33809696,9,0
33826348,0,0
33842980,4,0
33859632,1,0
33876264,0,0
33892908,4,0
33909528,9,0
33926184,25,1
33943868,4,0
33960496,0,1
33977148,49,1
33994832,0,1
34011468,196,4
34030180,361,1
34048888,121,25
34068660,0,4
34085304,25,0
34102988,196,0
34121680,100,4
34140420,16,4
34158108,1,1
34174728,1,0
34191376,25,0
34209068,169,0
34227780,25,9
34245456,0,9
34262096,1,0
34278744,49,0
34296424,324,1
34315140,25,9
34332820,9,9
34349464,225,0
34368180,169,0
34386892,36,1
34404572,121,0
34423308,225,1
34442020,49,9
34459712,1,1
34476340,16,0
34494016,121,1
34512736,36,4
34530416,0,0
34547056,25,0
34564740,289,1
34583452,400,4
34602188,121,16
34621932,361,25
34641700,841,9
34660420,100,36
34680188,4,36
34697856,4,1
34714508,9,0
34731152,49,1
34748820,36,4
34766500,25,9
34784168,144,0
34802900,144,4
34821612,64,0
34839300,324,1
34858036,16,4
34875704,121,9
34894424,64,16
34913140,169,9
34931864,169,0
34950588,169,16
34970340,4,16
34988008,25,1
35005696,1,0
35022328,0,0
35038972,1,0
35055620,49,1
35073304,1,0
35089940,256,1
35108648,25,0
35126336,0,9
35142992,9,0
35159616,4,0
35176260,16,1
35193936,16,0
35211632,9,1
35228260,36,4
35245948,64,1
35263628,9,4
35280272,9,4
35296896,36,0
35314584,64,9
35332268,225,1
35350984,0,1
35367616,16,0
35385292,0,0
35401948,25,1
35419620,9,0
35436252,16,0
35453932,16,0
35471632,9,0
35488248,36,0
35505940,100,0
35524656,64,4
35542340,4,1
35558976,25,4
35576656,49,1
35594344,121,1
35613068,576,0
35631768,324,4
35650484,0,36
35668176,25,1
35685860,1,4
35702488,4,0
35719132,16,0
35736816,81,1
35754496,169,1
35773216,49,9
35790900,25,4
35808580,25,0
35826260,9,4
35842900,1,4
35859536,0,0
35876188,16,1
35893856,16,1
35911544,16,9
35929220,64,0
35946900,0,1
35963540,9,0
35980176,81,0
35997856,9,4
36014496,0,0
36031144,1,1
36047772,9,0
36064420,4,0
36081068,49,1
36098736,4,1
36115372,1,4
36132024,36,1
36149700,196,0
36168420,25,1
36186084,4,4
36202748,16,0
36220416,0,0
36237056,4,4
36253692,9,0
36270336,0,0
36286968,49,4
36304656,81,4
36322356,9,4
36338988,25,0
36356652,25,1
36374344,4,0
36390988,49,1
36408660,169,0
36427384,9,4
36444028,16,16
36462748,49,1
36480420,144,1
36499144,1,9
36515772,4,0
36532428,0,4
36549052,4,0
36565692,25,0
36583376,81,4
36601064,81,0
36618748,36,1
36636416,36,9
36654096,64,0
36671780,16,9
36689460,121,0
36708172,225,0
36726904,169,25
36746664,0,9
36763292,144,0
36782016,225,0
36800736,64,4
36818416,0,16
36836096,196,0
36854828,324,9
36873548,121,4
36892256,225,1
36910988,196,9
36929704,25,9
36947372,36,0
36965064,81,1
36982724,169,0
37001464,441,9
37020184,289,16
37039940,289,16
37059696,361,4
37078424,196,16
37098172,25,25
37116904,1,4
37133548,81,1
37151220,64,0
37168896,9,9
37185536,4,1
37202188,121,4
37220904,4,4
37237532,4,4
37254180,16,4
37271856,100,0
37290576,64,16
37309304,16,1
37326976,81,0
37344664,16,16
37363376,0,4
37380016,36,1
37397696,9,1
37414344,36,16
37433056,100,0
37451772,169,1
37470504,784,4
37489220,225,64
37508980,25,81
37527716,81,1
37545384,169,1
37564092,4,1
37580728,0,16
37598428,25,0
37616100,441,1
37634820,484,9
37653536,81,36
37672268,0,4
37688900,36,0
37706572,64,1
37724264,36,4
37741948,4,4
37758580,1,0
37775220,1,1
37791860,9,4
37808508,144,0
37827216,256,1
37845932,25,1
37863616,4,1
37880264,100,0
37898972,676,0
37917708,400,9
37936420,36,25
37955128,25,4
37972820,64,0
37990504,16,0
38008180,25,0
38025860,25,0
38043544,121,1
38062272,81,9
38079936,196,1
38098652,121,1
38117380,64,9
38135068,225,1
38153780,576,1
38172500,529,25
38192256,49,25
38210992,25,4
38228652,361,0
38247376,625,9
38266096,289,16
38285868,1,16
38303536,361,4
38322260,729,4
38340988,169,36
38360740,4,25
38378412,64,0
38396104,9,1
38412740,81,9
38430420,100,1
38449128,9,4
38465776,0,0
38482420,0,1
38499064,169,1
38517780,324,1
38536496,1,25
38554176,16,16
38572912,0,1
38589536,25,0
38607228,49,9
38624900,9,1
38641536,0,0
38658176,36,0
38675860,49,1
38693532,81,0
38711220,25,4
38728900,1,4
38745548,16,1
38763216,121,0
38781932,16,9
38799620,16,1
38817304,49,1
38834980,4,0
38851628,1,1
38868268,0,1
38884908,49,1
38902576,64,0
38920272,4,1
38936908,9,0
38953540,49,0
38971228,25,0
38988904,16,4
39006588,100,0
39025308,4,4
39041940,289,0
39060656,144,16
39080412,9,9
39097048,4,0
39113692,1,1
39130336,0,0
39146976,9,4
39163616,81,0
39181296,169,0
39200016,16,9
39217704,49,4
39235372,81,1
39253068,4,4
39269700,1,0
39286336,1,1
39302984,1,1
39319620,100,0
39338352,36,4
39356020,25,4
39373696,81,1
39391380,16,4
39409060,4,4
39425692,81,0
39443368,36,1
39461068,49,4
39478740,16,1
39496416,9,9
39513052,9,1
39529708,9,1
39546336,16,4
39564020,4,4
39580656,4,9
39597312,25,1
39614980,25,0
39632660,9,9
39649308,4,1
39665952,25,9
39683632,169,1
39702340,100,9
39721056,49,36
39739780,9,0
39756428,0,0
39773068,64,1
39790748,1,0
39807376,16,0
39825060,4,0
39841688,4,0
39858336,49,0
39876008,64,0
39893704,9,1
39910344,16,9
39928028,4,0
39944660,36,0
39962340,100,4
39981068,1,1
39997696,16,0
40015384,0,0
40032016,0,0
40048668,9,1
40065296,0,0
40081940,49,0
40099620,64,1
40117296,9,1
40133936,0,0
40150580,64,1
40168260,64,1
40185940,9,16
40203628,25,1
40221300,1,4
40237932,0,0
40254588,4,1
40271220,9,0
40287852,36,0
40305540,196,1
40324272,1,9
40340904,81,9
40358580,16,0
40376252,81,4
40393948,256,1
40412664,36,1
40430340,1,9
40446968,4,0
40463616,81,1
40481308,225,0
40500008,25,16
40518740,1,4
40535380,1,0
40552008,0,0
40568672,9,1
40585320,1,1
40601948,16,1
40619620,144,0
40638340,169,0
40657060,64,1
40674740,36,4
40692412,1,0
40709044,0,0
40725696,0,1
40742336,36,4
40760020,4,0
40776656,36,1
40794348,169,0
40813060,49,4
40830740,16,1
40848424,25,0
40866108,1,9
40882744,81,1
40900416,225,0
40919144,1,9
40935788,1,4
40952416,16,1
40970100,0,0
40986736,9,0
41003380,1,1
41020012,0,0
41036656,4,0
41053300,9,0
41069944,0,1
41086568,49,0
41104256,225,1
41122972,64,16
41141688,1,4
41158332,1,0
41174964,0,0
41191632,9,0
41208256,9,4
41224888,0,0
41241532,4,4
41258184,9,0
41274828,196,0
41293540,289,9
41312252,4,9
41328900,9,0
41345536,1,0
41362176,0,1
41378816,36,0
41396504,36,0
41414188,1,9
41430820,9,0
41447456,0,1
41464104,25,4
41481776,16,0
41499456,9,9
41516112,81,1
41533780,49,0
41551460,4,4
41568092,25,0
41585780,36,0
41603464,25,9
41621136,36,1
41638812,4,0
41655464,4,1
41672112,196,1
41690824,361,1
41709532,25,9
41727220,1,4
41743864,4,0
41760492,36,0
41778184,9,9
41794828,1,1
41811456,9,0
41828096,64,0
41845788,9,1
41862412,0,4
41879060,49,0
41896728,121,0
41915456,16,0
41933136,25,4
41950824,225,1
41969540,169,4
41988260,64,16
42006976,144,9
42025700,196,4
42044400,100,16
42064184,25,9
42081856,0,0
42098500,9,0
42115148,1,0
42131784,0,1
42148420,16,0
42166100,64,0
42183780,49,4
42201460,1,1
42218088,16,1
42235772,0,0
42252416,36,0
42270108,81,0
42287768,0,1
42304408,4,0
42321068,9,1
42337700,9,0
42354344,9,0
42370976,49,1
42388660,16,0
42406336,4,4
42422972,9,0
42439616,36,0
42457304,16,0
42474984,25,4
42492660,16,0
42510336,1,9
42526976,4,0
42543612,1,4
42560260,0,0
42576892,1,0
42593540,4,4
42610180,0,0
42626812,4,0
42643444,25,1
42661144,36,1
42678828,0,1
42695460,9,0
42712108,9,0
42728740,25,0
42746420,1,0
42763056,49,4
42780736,49,1
42798424,121,9
42817136,49,1
42834820,9,9
42851468,0,4
42868100,4,0
42884740,4,0
42901368,49,1
42919064,81,0
42936744,0,4
42953376,0,0
42970016,64,0
42987696,25,4
43005368,16,4
43023060,36,0
43040736,9,1
43057388,4,4
43074020,1,0
43090660,16,0
43108332,256,0
43127064,25,4
43144744,64,9
43162408,100,0
43181136,25,9
43198828,1,4
43215456,1,4
43232104,1,1
43248740,9,1
43265384,9,1
43282020,25,0
43299700,36,0
43317384,1,1
43334028,4,1
43350656,9,0
43367288,36,1
43384988,49,1
43402668,4,1
43419300,0,1
43435932,16,0
43453628,49,0
43471296,4,1
43487936,0,1
43504564,1,0
43521220,1,0
43537860,1,0
43554504,1,1
43571140,1,0
43587780,4,0
43604412,9,0
43621060,0,0
43637684,49,0
43655380,169,0
43674096,121,4
43692820,196,9
43711552,196,9
43730272,25,16
43748976,1,9
43765612,4,1
43782260,36,1
43799948,4,4
43816576,9,1
43833212,4,0
43849872,0,0
43866512,9,0
43883136,64,0
43900820,1,1
43917468,25,4
43935144,36,1
43952816,16,1
43970492,0,0
43987148,4,4
44003776,0,1
44020412,1,0
44037044,36,0
44054748,36,1
44072420,4,0
44089060,0,0
44105696,16,1
44123380,4,0
44140008,25,0
44157696,36,4
44175388,81,1
44193072,1,4
44209708,25,4
44227376,9,1
44244012,36,4
44261700,81,0
44279368,100,4
44298100,121,4
44316828,4,1
44333464,36,0
44351144,9,0
44367780,16,4
44385460,121,0
44404180,16,4
44421856,16,1
44439536,9,1
44456192,1,1
44472820,0,0
44489456,25,0
44507132,36,1
44524828,25,0
44542508,16,1
44560180,0,4
44576832,1,1
44593468,25,0
44611136,64,0
44628820,25,1
44646508,0,0
44663132,9,0
44679780,1,0
44696412,1,0
44713056,1,1
44729704,9,1
44746332,9,0
44762988,1,0
44779632,100,1
44798348,9,1
44814968,4,9
44831612,16,1
44849300,25,1
44866988,9,1
44883620,36,4
44901296,0,0
44917936,64,0
44935620,25,4
44953312,9,1
44969932,36,0
44987624,1,0
45004256,4,0
45020896,0,9
45037540,64,0
45055228,36,9
45072896,16,1
45090580,25,0
45108260,4,0
45124900,144,0
45143616,144,1
45162336,64,4
45180032,121,1
45198740,100,0
45217464,1,4
45234092,49,4
45251784,25,1
45269456,16,1
45287132,36,0
45304816,4,1
45321464,25,1
45339136,16,1
45356820,36,1
45374504,36,0
45392180,0,4
45408820,0,1
45425456,1,4
45442116,16,0
45459792,16,0
45477460,81,1
45495144,1,4
45511788,121,4
45530508,25,4
45548176,144,9
45566888,144,1
45585624,9,4
45602248,4,0
45618900,16,0
45636568,0,0
45653220,1,4
45669864,9,0
45686500,1,4
45703132,0,0
45719788,9,0
45736416,1,4
45753064,49,0
45770736,36,0
45788424,0,4
45805060,4,0
45821696,25,1
45839376,16,0
45857056,9,0
45873696,25,1
45891376,9,0
45908020,36,0
45925700,16,0
45943372,1,4
45960012,9,1
45976664,4,0
45993308,100,0
46012016,169,0
46030748,1,1
46047388,0,1
46064020,49,0
46081696,64,1
46099372,1,4
46116028,25,0
46133700,16,4
46151376,121,1
46170092,25,9
46187788,0,4
46204416,25,0
46222104,144,0
46240816,121,0
46259548,16,1
46277216,0,1
46293852,1,0
46310500,25,0
46328188,16,4
46345868,1,4
46362500,64,0
46380180,25,0
46397860,1,1
46414500,0,0
46431140,121,0
46449860,169,0
46468576,25,9
46486252,0,1
46502900,1,1
46519540,1,0
46536188,1,0
46552828,9,0
46569452,16,1
46587136,16,4
46604828,36,0
46622500,1,0
46639132,0,0
46655776,4,1
46672432,1,0
46689064,1,0
46705704,0,1
46722348,100,1
46741060,25,0
46758740,49,4
46776428,25,0
46794104,0,9
46810736,0,1
46827384,9,1
46844032,9,1
46860660,64,0
46878340,1,9
46894988,1,4
46911620,121,0
46930340,121,9
46949052,16,9
46966724,1,0
46983376,9,0
47000024,25,4
47017700,9,0
47034320,16,0
47052020,9,0
47068660,25,0
47086340,36,1
47104028,4,1
47120660,81,0
47138344,64,1
47156016,49,4
47173708,49,1
47191388,9,1
47208020,25,0
47225700,64,4
47243392,0,1
47260028,81,1
47277692,25,0
47295380,9,4
47312020,16,0
47329712,225,0
47348420,196,4
47367132,36,25
47385860,0,4
47402492,9,0
47419128,36,0
47436816,0,0
47453464,49,1
47471136,196,0
47489860,256,0
47508588,16,9
47526260,4,4
47542888,16,0
47560580,81,0
47578264,9,4
47594896,0,0
47611544,36,0
47629216,144,0
47647936,16,4
47665612,1,4
47682264,16,1
47699932,25,0
47717628,25,9
47735292,1,0
47751940,9,1
47768568,9,0
47785220,81,0
47802908,25,4
47820584,1,1
47837220,25,0
47854908,36,0
47872576,0,4
47889220,4,4
47905856,49,0
47923548,9,1
47940188,1,4
47956820,1,1
47973456,64,1
47991144,64,1
48008820,4,4
48025468,1,0
48042108,25,0
48059784,49,0
48077464,121,4
48096172,49,9
48113864,25,9
48131540,144,4
48150256,36,9
48167932,1,4
48184592,9,0
48201220,1,0
48217860,0,1
48234488,0,0
48251136,0,0
48267776,4,0
48284408,64,0
48302108,81,1
48319788,1,1
48336420,1,0
48353056,36,0
48370752,25,1
48388432,9,1
48405060,289,0
48423776,169,4
48442504,0,9
48459144,9,1
48475776,64,0
48493464,144,0
48512184,1,4
48528820,49,4
48546500,4,1
48563136,1,1
48579780,4,0
48596404,25,1
48614088,9,0
48630736,4,4
48647380,36,0
48665056,36,0
48682740,1,9
48699368,0,1
48716032,9,1
48732660,16,0
48750344,25,1
48768024,36,0
48785700,0,0
48802340,49,0
48820024,121,9
48838740,36,16
48857460,0,0
48874096,0,0
48890740,1,0
48907376,9,0
48924024,4,1
48940664,196,0
48959380,169,4
48978108,0,4
48994728,25,1
49012416,9,1
49029052,25,1
49046740,144,1
49065460,100,4
49084176,0,9
49100824,9,4
49117456,4,0
49134096,0,0
49150740,1,1
49167380,4,0
49184036,16,1
49201712,100,1
49220412,25,4
49238100,100,4
49256828,144,0
49275540,1,4
49292176,49,4
49309856,64,1
49327524,49,0
49345212,0,0
49361860,9,1
49378508,0,0
49395128,36,4
49412820,64,0
49430492,9,1
49447140,1,0
49463780,9,1
49480416,36,4
49498096,1,0
49514752,36,1
49532416,16,0
49550100,4,0
49566752,0,0
49583392,1,1
49600032,16,1
49617696,81,1
49635380,9,1
49652028,0,0
49668668,64,0
49686336,49,1
49704020,16,4
49721700,25,0
49739380,9,0
49756020,81,0
49773704,9,1
49790340,1,1
49806968,0,0
49823624,1,0
49840268,25,0
49857936,36,0
49875620,0,1
49892264,4,1
49908908,1,0
49925548,4,1
49942180,0,0
49958808,36,1
49976512,16,0
49994180,0,1
50010820,36,0
50028484,64,0
50046184,16,0
50063848,64,1
50081532,64,0
50099228,4,1
50115864,25,1
50133548,100,0
50152260,25,1
50169948,1,4
50186592,1,0
50203220,16,0
50220900,81,1
50238588,100,4
50257292,100,16
50277060,9,4
50293700,16,4
50311388,1,0
50328016,4,0
50344660,81,0
50362336,144,4
50381064,4,4
50397700,9,4
50414340,49,1
50432028,9,1
50448660,64,0
50466344,0,4
50482976,25,0
50500664,64,4
50518348,196,0
50537060,64,4
50554744,4,16
50572424,4,0
50589056,4,0
50605700,25,1
50623380,9,0
50640028,144,0
50658732,256,1
50677456,16,16
50696176,1,9
50712824,144,0
50731548,324,1
50750256,36,4
50767944,16,16
50786660,36,0
50804344,0,4
50820980,1,0
50837624,25,0
50855304,100,1
50874020,0,4
50890656,0,0
50907312,64,0
50924976,4,0
50941612,0,0
50958248,0,0
50974900,36,1
50992580,25,0
51010260,121,4
51028976,225,1
51047696,36,4
51065388,0,9
51082020,16,0
51099712,121,1
51118416,100,0
51137140,36,4
51154820,0,1
51171464,16,0
51189148,0,0
51205784,64,0
51223456,196,4
51242192,9,4
51258820,36,1
51276496,400,1
51295208,576,1
51313928,2809,36
51334728,7056,64
51355532,5776,324
51377360,81,324
51397136,2704,64
51417936,784,25
51437704,64,36
51456424,16,0
51474096,784,4
51492796,6084,4
51512580,1764,36
51533384,36,256
51553128,1369,4
51572896,4900,0
51592644,1764,225
51614488,81,100
51634256,484,1
51652972,15625,25
51674812,31329,529
51697684,26244,1296
51721608,21904,1936
51745524,11236,2025
51769452,4624,1024
51792316,5625,256
51814164,6724,256
51836008,900,784
51856800,18496,64
51878636,13924,625
51901540,3136,529
51923376,3249,64
51944176,7569,16
51964968,529,441
51985760,12996,225
52008648,18496,900
52031540,1681,1024
52054412,0,16
52072088,0,900
52090800,13225,1849
52114728,441,484
52135528,625,144
52156312,8100,25
52177128,289,196
52197932,12321,64
52219748,10201,289
52242660,16129,729
52265528,4225,324
52287364,4,1156
52307136,529,256
52327920,11025,9
52348736,0,4
52365364,15625,1600
52389284,7744,1225
52412164,3481,1
52431940,625,169
52452728,6400,324
52474568,4225,16
52495348,6400,196
52517216,6561,0
52536960,2401,1024
52559852,900,49
52579620,4096,289
52601440,8464,729
52623288,2704,1444
52646176,4489,25
52666972,14641,0
52687768,324,225
52708592,64,676
52728344,225,9
52747044,31329,144
52769932,0,441
52788640,5929,2916
52811524,1764,1225
52834408,2304,100
52856240,16641,361
52879124,8649,100
52900956,4624,961
52922828,26880,25
52944656,31329,2500
52968560,16384,2500
52992484,19881,196
53015380,841,2116
53037204,5329,169
53059048,27225,25
53080876,0,289
53099616,0,2704
53119376,6561,1296
53142220,0,225
53160968,0,16
53178648,0,1681
53198388,2116,225
53220244,25600,484
53243128,26244,121
53266016,576,1369
53287848,4,900
53306572,36,289
53326328,3025,1
53346088,9604,9
53365856,6084,676
53387668,16641,400
53410584,0,25
53428252,0,2025
53447996,5625,4761
53470880,17424,400
53493748,29584,529
53516652,1764,576
53538492,20164,225
53561368,28224,256
53584244,100,3025
53606088,8100,676
53627932,12544,841
53650812,10816,676
53673676,26244,676
53696560,0,2401
53716328,21316,2209
53740244,0,841
53758944,0,2116
53778724,14884,5184
53802644,49,1600
53823452,625,81
53843220,1089,256
53865044,6241,121
53886880,1024,49
53907696,4489,121
53929540,6400,64
53950324,49,961
53970096,400,49
53989844,3600,676
54011688,4489,1
54031452,6400,625
54053276,32761,121
54076168,14400,1296
54100092,7921,484
54121928,4900,324
54143768,2116,841
54165612,15876,1
54186404,16,1024
54207200,11025,49
54229052,625,400
54249852,361,25
54269600,7569,4
54289360,8100,961
54311220,5184,1024
54334084,100,196
54354876,196,400
54375688,2025,1
54395448,7921,576
54417292,484,196
54438080,961,25
54457848,1225,49
54478640,1296,289
54500500,729,0
54519228,729,144
54540012,2809,144
54561860,1444,0
54581624,196,484
54602412,3600,9
54622172,1521,289
54644020,1764,36
54664804,4356,81
54685596,81,1
54703292,6889,49
54724084,15376,169
54746960,17956,1089
54770892,576,784
54791684,1764,256
54813528,16900,4
54834336,31329,49
54856160,6084,2209
54879056,144,1296
54900888,484,169
54921684,11881,256
54944576,7396,81
54965376,8100,625
54987200,10609,49
55009036,2500,729
55030888,1,64
55048556,7921,0
55068316,8836,196
55090156,361,484
55110964,12996,36
55132800,21025,121
55155692,6889,2704
55178588,25,1156
55199380,2500,9
55219140,36,4
55236820,289,64
55256564,7569,49
55277364,10816,256
55300244,16129,625
55323124,0,484
55341848,29241,841
55364732,484,1369
55386568,15625,225
55409452,4225,324
55431308,256,289
55452092,4761,64
55472900,6889,1
55492652,5329,529
55514500,3481,81
55535296,484,1089
55557140,961,81
55576900,1,16
55594560,1764,121
55616412,676,9
55635136,3249,4
55654900,5625,25
55675696,3025,289
55697528,7569,324
55719352,17161,81
55741196,12100,576
55764108,2601,1444
55786960,1936,484
55808804,2916,400
55830656,10404,1089
55854576,1296,576
55876408,10404,169
55899292,225,49
55919052,19044,324
55941924,1545,576
55963768,0,2601
55983524,10816,1936
56007444,14641,484
56030316,2025,324
56052156,121,576
56072960,7225,4
56092732,13456,49
56114560,841,676
56135372,196,625
56156168,6084,36
56176960,1600,196
56198800,4761,225
56220648,19600,1
56241452,2916,484
56263292,2809,1089
56286156,529,49
56305920,2601,49
56326724,400,225
56347528,16,4
56365204,441,196
56386008,484,25
56405776,961,0
56424508,1296,144
56446324,1369,16
56467124,19600,9
56487908,9409,1024
56510812,324,676
56531600,10201,36
56553452,17161,25
56575288,1156,81
56596076,1369,961
56617916,7744,49
56638748,1089,49
56659536,196,784
56680328,484,16
56700080,9216,16
56720888,1225,361
56742740,1225,169
56764588,6400,400
56786404,11881,196
56809284,7396,169
56831120,529,1296
56852964,4225,324
56874812,784,225
56895604,361,169
56916420,2500,16
56937196,29929,225
56960100,7569,625
56981932,1681,3364
57004796,4096,0
57024576,2401,4
57044332,441,900
57065136,121,25
57084892,1,9
57101528,2025,196
57123356,3364,81
57144160,3025,4
57163932,10201,196
57186820,2916,484
57208656,0,196
57227368,4624,9
57247128,2601,289
57268964,11664,729
57291844,19600,169
57314728,1849,1369
57337616,31329,16
57359452,23104,625
57382324,6400,529
57404164,169,784
57424976,1369,169
57446824,324,361
57467620,729,169
57488416,4761,16
57509216,21609,25
57531044,3249,144
57552888,10816,576
57575772,16129,0
57596560,256,729
57617360,1225,1225
57640252,3249,1
57660012,100,484
57680792,14641,529
57703696,11025,729
57726572,1089,1369
57749432,14884,16
57771296,7921,484
57793128,1521,289
57814972,441,400
57835788,36,121
57855536,4,16
57873220,400,4
57891920,1936,121
57913768,529,16
57933532,2704,1
57953296,4624,9
57973068,400,361
57993840,4624,324
58015672,11449,1
58036504,2704,529
58058328,400,676
58079140,289,0
58097864,2025,9
58117612,4,0
58134244,5776,144
58156100,6889,9
58175852,9,484
58194572,961,64
58214320,2500,25
58235140,18769,121
58258012,11449,961
58280880,2025,729
58302740,441,289
58323532,121,100
58344344,4,4
58360980,144,25
58380744,16,36
58399456,400,81
58419212,225,0
58437932,10404,25
58459776,13689,25
58481596,3969,1444
58504488,8100,484
58526324,5476,324
58548160,1225,1764
58571056,4,81
58588716,8100,196
58610568,5476,4
58630332,324,324
58651116,1444,169
58672968,4489,64
58693796,0,100
58712484,1369,121
58734336,49,121
58754088,2025,1
58773856,9,361
58792592,4,81
58810264,2025,9
58830020,3136,361
58851864,625,169
58872656,196,9
58891380,25,0
58909060,441,4
58927772,1936,4
58947524,1296,49
58968332,16,361
58988072,9216,0
59007856,15376,0
59028652,2209,1600
59051516,8100,576
59073368,2601,4
59093128,5476,961
59114964,27556,0
59135768,21025,2704
59159684,1024,1156
59182568,3844,16
59203388,169,25
59223136,5476,0
59242900,1444,100
59264724,7225,361
59286564,121,400
59307388,361,484
59328172,144,529
59348968,2209,64
59369768,4761,784
59391616,16,1
59409296,11664,9
59430092,4489,4
59449852,1764,1089
59472720,2209,81
59493524,25,400
59513284,9025,144
59535128,5041,100
59556984,1600,1764
59579852,484,0
59598568,4624,25
59619380,8649,441
59641224,2809,441
59663044,4,49
59680720,4624,225
59702580,3136,49
59723372,529,484
59744168,484,16
59763940,121,256
59784736,1225,49
59805528,3249,81
59826332,289,1
59845072,64,100
59864812,784,25
59884588,3136,9
59904328,4624,121
59926160,36,529
59945920,3025,25
59966724,4624,324
59988568,12321,225
60011432,1225,400
60033300,9,729
60052000,17689,4
60072804,21316,121
60095688,2116,3025
60118560,1521,625
60140420,15129,49
60162256,1600,0
60182008,529,144
60202804,529,25
60222568,8281,0
60242328,4,16
60259996,2401,196
60281844,3969,196
60303688,6084,49
60324480,3025,1444
60347356,14884,16
60369200,3844,784
60391040,7744,9
60410788,10609,225
60433684,289,3364
60455520,2704,169
60477356,0,784
60496092,1225,4
60515856,625,25
60535612,25,576
60555388,8836,16
60576164,0,676
60594888,0,529
60613592,16260,3025
60637532,11193,4356
60661440,29241,4225
60685376,9,3136
60705128,22201,1156
60729032,6400,49
60749840,5184,1296
60772708,0,64
60790396,29929,576
60813288,36,3136
60834088,729,100
60854884,3481,400
60876716,529,441
60897532,625,361
60918320,8464,400
60940172,7744,1
60959948,324,64
60979696,12544,784
61002564,0,144
61021296,3025,1849
61044184,9,2809
61063936,625,1
61082664,100,16
61102436,289,256
61123216,1600,4
61142976,1156,100
61164804,8649,16
61185620,0,64
61203292,8464,1089
61226164,0,1089
61245932,16,4
61263600,25,4
61281292,484,25
61301052,1369,144
61322896,36,729
61342644,121,289
61363460,9,36
61381136,81,36
61399860,484,121
61420660,49,144
61440416,16,0
61458092,0,16
61475768,4,0
61492428,1,1
61509060,64,4
61526736,25,25
61545456,4,4
61562104,81,0
61579780,25,49
61598496,9,16
61616188,0,1
61632820,121,0
61651540,256,9
61670252,729,9
61688984,1521,9
61708724,2209,36
61729524,1156,64
61750340,841,100
61771136,7056,81
61791936,3969,169
61813772,1024,841
61835632,900,81
61855376,441,100
61876164,169,529
61896976,289,1600
61918816,484,1024
61940652,400,441
61961456,49,144
61981220,25,16
61999936,36,9
62017616,25,196
62037380,100,256
62058172,64,289
62077928,0,0
62094568,36,3136
62115368,196,4356
62137220,64,64
62155936,4,81
62173608,49,1089
62194408,121,1764
62216256,4,2401
62236012,100,2209
62257852,196,2025
62279708,16,36
62298420,16,784
62318176,0,1024
62337944,9,2916
62357708,169,2209
62379548,49,169
62399300,36,1
62416988,16,1
62434660,100,676
62455444,484,2304
62477292,256,784
62498088,0,1024
62517852,49,4225
62538656,100,1089
62560504,49,0
62578180,4,81
62595852,1,289
62614584,4,1024
62634340,36,484
62654100,9,0
62670740,16,16
62689468,49,25
62708176,36,36
62726900,1,256
62745632,144,324
62766420,49,676
62786172,16,1849
62806972,25,2209
62827788,49,900
62847544,25,225
62867300,1,9
62883944,16,289
62903696,64,256
62923456,16,81
62942176,1,484
62960896,36,289
62980660,25,49
62999380,16,225
63019144,25,400
63038896,1,1024
63058652,0,676
63077376,4,4
63094024,0,25
63111708,9,225
63130416,25,169
63150184,16,49
63168904,4,4
63185548,4,25
63203216,1,4
63219860,4,25
63237548,121,1
63256256,36,16
63274972,4,144
63293704,16,256
63313456,16,576
63333216,4,225
63351940,4,81
63369616,0,81
63387300,0,9
63403936,0,1
63420588,1,9
63437228,1,0
63453868,0,1
63470496,1,9
63487144,16,25
63505864,9,1
63522496,1,25
63540172,4,4
63556824,0,36
63574500,4,289
63593220,81,289
63612992,49,169
63632728,16,529
63652488,1,2209
63672256,4,169
63690984,100,144
63711764,25,4
63729452,16,625
63749228,4,225
63767944,0,9
63784588,0,1
63801208,4,961
63819940,0,1089
63839684,0,289
63858412,49,900
63878188,25,676
63897944,4,16
63915612,4,121
63934348,9,256
63953056,225,1156
63974880,121,5184
63996744,100,4225
64018580,4,64
64036264,100,784
64057060,0,36
64074736,9,49
64092428,25,0
64110108,1,144
64128820,4,4
64145464,9,169
64164176,144,1600
64186008,100,784
64206800,9,0
64223460,1,36
64241140,0,0
64257784,1,49
64275444,9,49
64293136,4,64
64310824,1,81
64328492,1,16
64346188,0,100
64364904,1,400
64383612,4,324
64402344,9,49
64420028,0,25
64437700,9,0
64454336,0,256
64473056,25,64
64491784,0,36
64509464,0,81
64527144,0,196
64545864,9,729
64564588,1,100
64583296,9,1
64599932,0,361
64618660,25,144
64638420,9,36
64656100,49,36
64674824,9,25
64692500,4,324
64711208,4,144
64729932,4,36
64747624,9,1
64764264,4,0
64780896,9,169
64799616,81,169
64819380,0,16
64837052,4,16
64854740,36,25
64873444,9,169
64892188,1,4
64908816,0,64
64926504,0,1
64943152,9,441
64961860,0,225
64980576,0,64
64998260,16,121
65018020,4,16
65035700,9,81
65053380,4,400
65072096,81,441
65091872,81,961
65111620,144,1681
65133456,196,961
65154272,0,100
65172968,49,324
65192720,36,5041
65213528,289,5929
65235360,256,4489
65257216,36,5625
65278008,100,2601
65299852,169,4624
65321688,400,4761
65343544,256,81
65363304,0,64
65380976,9,1
65397624,121,400
65418420,81,289
65438184,16,16
65456896,1,9
65473532,0,36
65491232,9,729
65509920,25,961
65529692,16,289
65549464,16,256
65569216,1,36
65586908,9,225
65605612,25,1024
65626420,1,576
65645140,0,16
65662816,0,0
65679460,1,1
65696100,0,100
65714824,4,169
65733536,1,484
65752264,49,961
65772020,49,625
65791784,4,16
65809468,4,100
65828188,9,36
65845860,1,4
65862496,0,1
65879148,0,169
65897864,1,1764
65917608,25,1681
65938404,36,144
65958176,9,0
65974824,4,81
65992500,4,400
66011220,9,256
66029936,0,144
66048656,4,36
66066332,4,4
66082988,4,0
66099628,1,9
66116252,1,25
66133924,4,484
66152664,16,1764
66173464,81,64
66192172,0,100
66210912,0,169
66229624,0,144
66248340,16,9
66266016,16,49
66284736,0,361
66303464,36,1681
66324256,36,961
66344012,4,900
66362740,25,169
66382496,0,289
66401204,1,676
66419944,25,36
66438660,25,144
66458420,9,49
66476108,4,1
66492740,36,64
66511448,25,400
66531212,36,2304
66552024,25,324
66571788,64,16
66590492,25,9
66608184,4,289
66626888,1,625
66645624,9,900
66664340,36,16
66683064,0,9
66699700,1,4
66716328,4,576
66735056,9,324
66753788,16,256
66773552,1,169
66792252,4,324
66810984,64,1225
66831788,36,625
66851544,4,484
66870244,4,121
66888988,0,81
66906660,9,169
66925380,0,81
66943064,25,529
66962832,1,1
66979452,16,100
66999204,0,961
67017940,100,4096
67039780,64,1156
67060576,4,100
67079308,36,1156
67100092,81,729
67119852,36,196
67139616,0,225
67158348,1,25
67176020,1,169
67194732,0,256
67213472,0,9
67230112,1,4
67246728,16,16
67265448,4,49
67283136,4,81
67300820,1,121
67319536,1,1
67336180,4,144
67354912,9,169
67373616,0,16
67391288,0,81
67408976,0,0
67425620,0,100
67444348,4,144
67463060,16,0
67480748,4,25
67498416,0,1
67515052,1,9
67531684,1,36
67549380,0,196
67568100,4,324
67586820,16,49
67605552,1,4
67622184,0,1
67638824,0,64
67656496,1,25
67674180,0,49
67691876,1,16
67709532,0,36
67727216,0,196
67745944,4,361
67764656,4,25
67782340,0,4
67798972,0,16
67816668,9,841
67835368,64,900
67855132,9,169
67873864,0,16
67891528,16,1089
67912332,144,3136
67934164,121,400
67954980,0,25
67972672,0,196
67991376,1,196
68010116,16,1
68027784,0,0
68044408,4,100
68063132,9,144
68081872,4,36
68099536,0,169
68118252,1,81
68135932,4,324
68154672,0,64
68172340,49,169
68192112,1,16
68209788,1,9
68226428,1,289
68245140,4,400
68263860,1,64
68281556,1,100
68300264,4,1
68316904,1,4
68333536,1,81
68351224,25,64
68369948,1,36
68387616,36,529
68407380,1,484
68426108,1,81
68443776,4,25
68461460,1,49
68479148,0,9
68495776,4,36
68513456,0,81
68531132,0,16
68548808,4,169
68567544,9,3969
68587288,121,2025
68609144,16,0
68626828,0,169
68645536,16,16
68664256,1,16
68681940,25,289
68701680,4,1024
68721456,64,121
68741232,0,9
68757856,9,256
68776564,100,16
68796336,36,1764
68817136,100,1156
68838980,4,361
68857700,9,16
68875376,16,49
68894092,4,1024
68913856,1,100
68932572,36,1681
68953388,121,676
68974184,0,4
68990816,16,4
69008496,0,25
69026188,0,1
69042828,25,1
69060496,49,4
69078184,0,144
69096912,1,169
69115620,1,16
69133288,0,0
69149948,4,361
69168668,16,144
69188412,1,256
69207132,64,1089
69227940,64,324
69247704,1,0
69264336,0,36
69282028,25,49
69300728,100,324
69321540,4,361
69340264,16,676
69360032,49,225
69379784,4,36
69397452,9,9
69414100,1,841
69432812,9,400
69451540,4,4
69468192,9,1
69484820,1,100
69503548,1,36
69521216,4,225
69539932,0,2401
69559700,25,2304
69580492,36,121
69600252,4,0
69616900,0,1
69633548,4,256
69652256,64,144
69672032,4,0
69688668,4,4
69705288,0,81
69722968,4,1156
69742736,4,2209
69762500,9,484
69781212,4,144
69799920,4,49
69817616,4,0
69834264,0,49
69851936,0,196
69870660,0,81
69888340,1,16
69906012,1,36
69923692,0,0
69940340,0,64
69958032,1,9
69974664,4,81
69992336,4,16
70010016,0,4
70026668,4,25
70044344,4,64
70062016,16,36
70080752,1,16
70098420,0,16
70116100,1,1
70132740,1,9
70149380,0,144
70168100,4,81
70185772,0,16
70203468,0,25
70221144,4,9
70237784,1,100
70256496,1,4
70273136,0,36
70290824,1,81
70308500,1,81
70326168,16,144
70345940,16,49
70364660,0,4
70381296,4,81
70398972,0,576
70417708,0,196
70436420,0,36
70454092,1,324
70472816,0,81
70490496,16,0
70508168,4,1
70524808,0,0
70541456,1,9
70558104,1,25
70575784,9,169
70594484,9,169
70613220,0,0
70629852,16,49
70648580,0,1
70665212,25,16
70683948,0,0
70700588,1,16
70718252,1,36
70735940,0,25
70753632,9,441
70772340,1,256
70791056,0,64
70808748,1,16
70826416,9,576
70845136,1,36
70862804,36,400
70882580,16,400
70902348,0,64
70920020,0,81
70937708,4,9
70954336,4,36
70972012,0,9
70988660,9,144
71007380,4,9
71024032,4,49
71041700,0,9
71058332,1,16
71076020,1,16
71093704,1,1
71110336,0,4
71126960,0,4
71143620,4,36
71161296,4,81
71178972,0,81
71196656,1,1
71213312,1,9
71229940,1,4
71246580,1,121
71265300,1,16
71282980,1,25
71300660,1,0
71317300,0,0
71333944,0,1
71350576,1,0
71367220,4,9
71383860,4,1
71400504,1,36
71418192,0,256
71436888,1,16
71454580,1,0
71471228,4,0
71487860,1,256
71506580,36,441
71526332,0,81
71544028,49,0
71561692,1,289
71580420,25,784
71600180,81,225
71619956,1,4
71636588,0,121
71655300,1,4
71671944,1,0
71688588,1,1
71705208,0,0
71721856,36,1
71739548,9,4
71756180,4,4
71772820,4,4
71789452,25,9
71807144,81,9
71824804,36,81
71843544,256,16
71863288,0,9
71879928,1444,25
71900732,729,36
71920492,0,121
71939216,1444,4
71958976,2809,49
71979780,9,64
71997452,2401,49
72018268,1521,9
72038016,0,81
72055704,16,36
72074428,121,9
72093140,256,81
72112884,8464,64
72133696,20164,144
72156572,7744,1225
72179452,5476,900
72201300,36,64
72220012,9216,100
72241844,4,81
72259516,121,529
72280332,7569,121
72302176,18225,25
72324008,9025,1681
72346884,289,196
72367684,2809,0
72387452,4900,16
72408256,23104,36
72430104,14161,1521
72454004,784,1369
72475840,2500,0
72495604,2916,4
72515380,361,36
72535136,121,256
72555940,484,4
72574648,3969,4
72594400,3025,196
72616260,784,1369
72638088,3136,441
72659924,5041,16
72680740,13924,1
72701516,29929,196
72724404,21609,1089
72748328,6400,784
72770168,8464,169
72791984,5776,676
72813848,24649,1024
72837772,0,361
72856476,2601,1681
72879384,1,1444
72899148,16,100
72918904,400,4
72937612,3025,144
72959440,17956,4
72980256,0,361
72998968,15876,3844
73022884,36,2704
73043696,961,4
73062416,1764,9
73082188,4,225
73100896,1156,196
73122724,1296,256
73144568,2601,0
73164320,5776,49
73185132,1764,4
73204864,0,441
73223608,28561,900
73246492,7569,2116
73269360,25281,49
73291188,14884,2025
73315128,3249,729
73336972,676,225
73357780,13456,196
73380640,0,529
73399372,18225,2304
73423300,729,1156
73445132,0,1
73461772,0,576
73480492,27556,2809
73504396,15129,2601
73528316,484,576
73549128,8100,81
73569920,289,324
73590724,5184,289
73612576,2704,100
73634412,1764,121
73656240,2704,4
73676032,625,144
73696808,16,25
73715540,784,1
73734264,225,0
73752988,0,49
73770664,169,0
73789380,784,1
73808104,289,361
73828908,16,225
73848656,169,0
73867380,1444,0
73887140,324,1
73905864,4,81
73923540,16,0
73941216,2809,4
73960972,4096,64
73981768,144,100
74002576,144,64
74022340,16,25
74041064,144,25
74060820,784,9
74079540,1225,16
74100324,289,484
74121124,3364,100
74142980,289,225
74163776,36,36
74182488,1936,196
74204356,256,9
74223048,225,256
74243856,2209,4
74263612,784,9
74282332,4225,49
74303116,5184,400
74324956,28900,16
74346808,16641,2209
74370724,2601,784
74392560,361,4
74411304,9,196
74430000,5776,4
74449764,1089,0
74469528,2304,576
74491364,100,25
74511128,3481,324
74532972,2916,121
74554816,9,196
74573524,225,36
74593272,5041,1
74613064,6561,196
74634896,2304,484
74656720,29929,9
74677524,18225,400
74700412,6724,784
74722228,3969,400
74744092,841,169
74764896,2916,0
74784640,3136,196
74806496,3600,49
74827308,169,121
74848096,1600,529
74869928,8464,9
74889680,4356,256
74911532,49,256
74931304,64,4
74948984,64,16
74967704,9,36
74985368,961,36
75005136,1764,4
75024900,9,100
75043632,144,81
75063388,1225,64
75084172,7225,16
75104960,9,256
75123680,1089,144
75145528,5329,256
75167372,3600,16
75188172,9,361
75206912,49,1
75224568,1089,144
75246412,5929,961
75268256,64,225
75288000,2704,100
75309844,1681,9
75329616,441,4
75348336,2601,64
75369132,1,49
75386820,144,144
75407636,9,49
75425304,841,1
75444008,441,81
75463776,15625,4
75484576,5776,441
75506412,4,441
75525128,1681,1
75544896,729,25
75564648,729,16
75584420,121,0
75603140,361,49
75622900,9,49
75640560,4225,64
75661372,2809,9
75681132,3600,361
75702968,9025,0
75722716,6724,1156
75745620,49,441
75765376,2601,25
75786164,225,16
75805940,4096,16
75826720,11449,196
75849612,14161,576
75872488,4624,841
75894336,16,625
75914096,900,100
75934892,64,4
75952568,3969,9
75972340,4096,64
75993132,1296,169
76014988,16,144
76034736,784,121
76055528,64,16
76074256,1849,0
76094012,1,100
76112716,2601,144
76134576,1764,36
76155372,17161,25
76177208,13225,784
76200088,3481,676
76221916,5476,361
76243764,6724,64
76264576,1225,784
76286408,676,196
76307220,169,400
76328032,16,9
76345696,529,196
76366496,289,1
76385220,400,49
76404976,4,49
76422648,7396,121
76444484,27889,36
76466324,14400,1764
76490252,441,1089
76512084,1681,16
76532908,1600,1
76552652,961,16
76572424,529,49
76592192,676,9
76610892,1681,9
76630652,1156,9
76650412,4,144
76669156,49,1
76686820,1024,121
76708652,5625,0
76728412,2304,121
76750248,49,361
76770016,36,9
76787688,1849,1
76807452,7744,196
76829292,1225,289
76851120,1225,81
76871944,625,49
76891696,100,225
76912488,3025,144
76934328,29929,16
76956180,24025,729
76979040,4356,2116
77001924,8100,529
77023764,13924,529
77046628,15625,1681
77070560,16384,676
77093444,7921,484
77115296,5329,1296
77138176,49,289
77157928,6561,16
77178728,1444,4
77198508,961,225
77219296,529,36
77239052,49,36
77257768,400,0
77276484,14641,25
77298320,12996,225
77321204,36,1089
77342028,81,196
77361784,289,64
77381528,16,16
77400248,36,1
77417924,4900,9
77437704,2500,4
77457456,400,324
77478256,7921,81
77499052,10201,361
77521936,2209,676
77543768,441,169
77564576,3969,4
77584328,225,49
77604088,121,121
77624884,1156,4
77644652,100,0
77663372,10816,36
77685200,1521,484
77707036,3136,676
77728876,12996,169
77751764,24025,400
77774660,625,324
77795460,784,576
77816248,2500,36
77837032,2025,16
77857848,0,324
77876568,7225,961
77898404,8100,2304
77921296,14884,400
77944164,18496,1089
77968092,2704,81
77988900,16,1156
78009688,529,225
78030480,3600,169
78052320,9216,225
78074180,1156,729
78096020,900,49
78115780,12321,9
78136568,28561,9
78157372,4096,1156
78180256,16,1600
78201056,1089,25
78221852,3481,4
78241604,729,36
78261368,8281,324
78283212,11881,289
78306092,2601,196
78327940,196,256
78348732,5929,16
78369512,26896,196
78392416,0,1521
78412180,28900,3136
78436068,5329,2500
78458984,2585,100
78480804,16129,2116
78504728,11025,1764
78528652,22500,196
78551532,441,1681
78573364,324,324
78594156,24649,64
78616020,7905,1089
78638888,28900,3249
78662796,2209,2116
78685684,0,361
78704408,676,49
78724176,729,196
78744972,2209,441
78766812,484,144
78787604,30276,1
78808408,23409,225
78831292,1444,784
78853124,3364,81
78873940,529,4
78892636,7744,169
78914472,23104,144
78937364,11881,441
78960248,1225,1600
78983116,8464,169
79004964,961,324
79025768,1600,25
79046552,400,121
79067372,12100,49
79089208,4096,729
79111060,36,441
79130836,4,4
79147456,196,4
79166180,121,4
79184888,6084,1
79204652,12769,484
79227528,4356,1089
79250404,16,144
79270188,121,0
79288884,64,0
79306564,5329,36
79327372,12996,169
79350244,576,441
79371040,3600,256
79392892,100,100
79413700,841,225
79434496,7056,81
79455300,21609,441
79478168,36,2704
79498968,7225,2025
79521872,3844,256
79543676,9216,361
79565524,7569,64
79586336,2601,900
79608176,4225,361
79630016,144,0
79648712,81,361
79668496,3600,25
79689292,900,100
79710092,361,225
79730896,1936,196
79752756,49,4
79770428,4,121
79789144,9,36
79806816,5476,0
79826564,6084,144
79848408,400,676
79869220,1089,100
79891064,25,169
79910812,529,100
79931624,9801,100
79953444,0,676
79972168,1089,1444
79995044,29584,625
80017948,5329,625
80039776,10201,1369
80063696,23104,400
80086568,26244,1681
80110476,0,1089
80130256,15625,3025
80154160,2916,2500
80177044,529,81
80196808,1444,289
80218640,2304,400
80240476,2601,400
80262340,36,225
80282080,4489,100
80303932,10201,25
80325768,7056,36
80346556,3481,676
80368412,4096,324
80390260,3249,25
80411056,4624,441
80432888,7056,256
80454736,1764,225
80476580,676,529
80497380,676,25
80517140,4,225
80535864,4225,9
80555604,28900,0
80576396,3844,841
80598248,12996,1296
80622164,6889,169
80643992,2304,729
80665856,2116,4
80685608,841,169
80706416,529,225
80727216,841,144
80747996,10404,25
80769848,17956,676
80792740,100,625
80813528,3249,169
80835364,196,1
80854080,9216,4
80873852,17161,64
80895692,529,900
80916476,169,169
80937300,196,0
80955992,1936,324
80977840,3249,1
80997612,1156,625
81019448,1521,49
81040260,841,9
81058976,49,361
81078744,0,16
81096428,324,64
81116188,196,16
81135928,1600,9
81155688,7569,100
81177520,3844,225
81199380,81,576
81219140,529,0
81237860,81,16
81256584,81,16
81275300,0,4
81291932,9,9
81308572,100,0
81327304,169,0
81346012,0,1
81362648,0,1
81379284,9,4
81395940,4,1
81412568,49,0
81430256,100,9
81448984,1,9
81465628,36,4
81483308,4,0
81499936,169,1
81518668,529,0
81537376,324,4
81556096,64,36
81574804,16,0
81592500,1,9
81609140,49,4
81626812,144,0
81645540,9,25
81663236,169,1
81681948,9,4
81698580,9,1
81715240,256,16
81734992,256,16
81754740,324,64
81774492,961,1
81793216,25,169
81812984,289,0
81831692,49,64
81850416,16,9
81868112,49,1
81885768,16,16
81904496,196,25
81924272,121,841
81945060,64,625
81964816,25,289
81984576,25,784
82004340,144,1764
82026176,196,1444
82048020,64,121
82067788,0,0
82084420,0,400
82103140,4,1156
82122908,25,256
82142660,4,49
82160332,0,225
82179044,0,225
82197784,16,256
82217548,49,625
82237300,49,484
82257072,9,49
82274728,4,841
82293448,100,3600
82315292,144,1849
82337144,9,225
82355852,0,100
82374572,9,100
82393308,4,1
82409944,1,1
82426588,1,400
82445284,9,625
82464032,4,0
82480668,9,256
82499380,9,400
82518096,0,196
82536820,9,961
82555540,49,1849
82576328,64,256
82596104,25,64
82614820,81,121
82634588,121,841
82655380,64,1225
82676180,25,36
82694900,1,121
82713628,9,64
82731300,4,361
82750008,49,484
82769776,0,256
82788508,49,784
82808260,0,121
82826968,100,2401
82848828,49,484
82868584,0,196
82887296,0,100
82906012,0,49
82923696,0,400
82942408,16,25
82961140,4,529
82979868,4,1936
82999624,9,900
83018336,0,9
83034968,0,144
83053700,4,64
83071372,16,9
83089060,4,2601
83108808,81,2025
83129628,1,289
83148340,81,2704
83169144,81,36
83187876,4,36
83205544,16,529
83225292,36,1681
83246092,25,3136
83266892,121,256
83287704,16,81
83306408,1,16
83324104,49,121
83343864,25,576
83363624,4,225
83382348,0,1
83398984,0,36
83416652,0,121
83435384,9,400
83454100,9,729
83472820,9,225
83491532,4,9
83508176,0,25
83525856,1,729
83544568,36,2809
83565376,81,1156
83586188,25,289
83605940,36,729
83625696,64,625
83645460,0,25
83663144,0,16
83680816,25,36
83699540,9,121
83718268,4,49
83735936,0,36
83753620,4,16
83771292,1,100
83790020,0,289
83808740,16,100
83828504,4,49
83846188,1,4
83862832,1,16
83880500,1,36
83898188,1,169
83916908,0,169
83935620,16,441
83955372,100,1764
83977204,121,196
83998020,9,121
84016732,1,400
84035456,4,169
84054184,1,0
84070820,1,169
84089540,4,400
84108244,36,225
84128020,4,4
84144660,1,0
84161300,0,4
84177948,1,49
84195620,9,361
84214336,9,81
84232016,0,81
84249700,1,36
84267380,0,144
84286096,16,25
84304812,0,625
84323544,4,25
84341212,16,81
84359936,0,1
84376568,36,196
84396348,25,1521
84417144,121,2304
84438964,144,841
84459788,4,25
84477460,9,144
84496180,4,64
84513860,9,4
84530512,9,100
84549212,0,361
84567940,1,225
84586672,1,9
84603308,1,100
84622008,1,64
84639692,1,196
84658420,9,729
84677148,1,144
84695856,0,4
84712508,0,9
84729148,0,0
84745792,4,1
84762420,4,1
84779060,25,64
84797784,4,81
84815456,36,4
84833132,1,361
84851860,49,1024
84872656,25,0
84890340,4,324
84909048,1,25
84926740,0,0
84943380,9,1
84960016,0,1
84976664,1,36
84994344,0,196
85013060,4,289
85031780,4,81
85049468,0,36
85067144,0,144
85085864,4,400
85104576,4,1
85121216,16,576
85140972,25,529
85160740,1,841
85179468,36,400
85199228,4,49
85216900,1,36
85234572,1,484
85253308,0,100
85272020,1,144
85290740,16,144
85310508,1,4
85327144,0,4
85343784,0,36
85361464,0,0
85378108,9,81
85395780,25,121
85415540,16,4
85433220,1,324
85451940,25,169
85471704,1,1
85488332,0,4
85504980,1,4
85521624,4,16
85539296,9,4
85555944,4,49
85573616,9,144
85592344,4,0
85608992,0,49
85626668,0,1
85643304,0,36
85660988,1,36
85678660,1,25
85696336,1,169
85715064,16,484
85734816,16,121
85754580,1,1
85771208,0,9
85787872,1,9
85804504,1,4
85821144,1,196
85839852,0,361
85858580,4,16
85876276,4,121
85894984,25,676
85914740,25,16
85933456,4,2401
85953216,81,1521
85974024,0,196
85992744,1,1024
86012488,256,3969
86034332,196,1849
86056176,25,289
86075948,100,36
86095700,121,81
86115456,9,361
86134176,36,25
86152904,1,1
86169544,9,0
86186184,0,1
86202808,4,9
86219452,1,49
86237132,4,289
86255868,49,144
86275616,4,529
86294324,49,2209
86315148,64,324
86334900,0,9
86351540,0,49
86369208,4,225
86387940,0,81
86405620,1,9
86422252,9,49
86439948,0,36
86457628,1,16
86475300,4,81
86492972,16,121
86512756,1,9
86529388,1,144
86548100,0,196
86566812,4,36
86584500,1,4
86601140,1,1
86617780,0,169
86636496,4,676
86655228,25,400
86674976,4,196
86693692,9,16
86711380,1,196
86730108,9,4
86746740,1,225
86765460,9,49
86783144,9,225
86801848,16,441
86821620,0,1
86838256,1,4
86854900,16,100
86874656,0,4
86891292,16,16
86910028,0,144
86928752,1,36
86946420,4,9
86963056,1,64
86980744,4,256
86999472,0,25
87017136,1,225
87035856,16,144
87055620,1,49
87073308,4,625
87092020,25,576
87111780,4,25
87129460,36,289
87149212,9,0
87165852,1,4
87182504,1,16
87200172,1,400
87218900,49,484
87238648,1,64
87256340,4,64
87274032,36,169
87293780,16,49
87312496,0,25
87330192,9,1
87346820,1,1
87363460,1,144
87382188,1,81
87399864,1,64
87417532,36,441
87437296,49,441
87457068,4,169
87475780,9,64
87493468,9,196
87512196,0,196
87530904,0,16
87548580,1,81
87566252,4,0
87582900,16,16
87601612,16,0
87619296,9,64
87636968,4,81
87654660,0,64
87672344,9,16
87690024,16,324
87709792,1,36
87727456,16,64
87746172,9,36
87763860,0,25
87781540,0,100
87800264,1,0
87816900,4,64
87834576,4,121
87853308,1,81
87870980,0,4
87887620,4,121
87906344,9,225
87925060,16,81
87943784,9,36
87961456,0,36
87979140,0,4
87995780,9,0
88012420,4,64
88030092,1,49
88047776,0,1
88064432,1,25
88082100,4,16
88099780,1,100
88118500,36,121
88138268,4,1
88154896,4,49
88172584,1,81
88190268,1,0
88206900,0,121
88225620,1,0
88242260,9,169
88260988,25,9
88278664,1,121
88297376,1,169
88316100,9,169
88334824,1,169
88353540,4,64
88371224,1,16
88388904,4,25
88406576,1,0
88423220,0,169
88441940,9,225
88460668,1,36
88478340,1,49
88496016,9,16
88513700,1,4
88530336,4,0
88546968,0,121
88565688,1,121
88584416,1,16
88602096,0,0
88618732,1,0
88635368,4,9
88652024,9,100
88670752,0,0
88687380,4,144
88706104,1,0
88722744,4,121
88741452,0,0
88758100,4,9
88774736,0,49
88792420,0,36
88810092,1,16
88827780,0,49
88845456,0,36
88863144,4,121
88881856,1,9
88898484,1,100
88917216,16,81
88935944,0,4
88952576,0,9
88969216,9,144
88987940,4,484
89006652,4,324
89025372,16,121
89045144,9,1
89061784,1,49
89079448,25,289
89099212,49,1
89116896,4,1225
89136656,81,2401
89157460,49,81
89176180,1,484
89194896,0,49
89212572,1,49
89230240,0,1
89246900,0,81
89264572,0,49
89282256,4,900
89300968,81,3249
89321776,49,576
89341548,9,256
89360260,4,324
89378988,0,9
89395636,9,1
89412260,16,225
89432012,4,256
89450748,4,144
89469460,0,49
89487140,16,81
89505864,0,529
89524588,49,441
89544328,9,64
89562008,0,0
89578664,0,9
89595300,1,0
89611940,1,36
89629608,0,484
89648344,9,256
89667060,1,1
89683688,0,4
89700328,0,64
89718024,1,225
89736744,16,25
89755452,1,256
89774188,4,1225
89793940,25,169
89813696,0,81
89831372,0,81
89849068,0,16
89866740,16,1
89884424,1,16
89902108,1,25
89919784,1,169
89938500,16,361
89958252,1,49
89975940,4,100
89994664,9,361
90013376,4,49
90031040,0,64
90048752,4,144
90067456,0,25
90085128,16,81
90103872,1,25
90121548,0,441
90140260,1,484
90158972,4,81
90176664,9,81
90194344,16,625
90214092,36,400
90233860,16,1
90251540,0,25
90269232,1,64
90286896,0,1
90303548,1,169
90322264,4,121
90340988,1,25
90358664,4,25
90376340,4,16
90394032,0,1
90410664,1,0
90427296,0,49
90444988,4,324
90463704,16,441
90483448,4,64
90501136,0,49
90518820,0,144
90537540,1,64
90555220,9,4
90571864,0,9
90588500,0,36
90606180,4,81
90623860,9,49
90641544,1,49
90659224,4,16
90676896,0,1
90693528,0,256
90712252,36,841
90732012,25,400
90751784,1,100
90770508,1,9
90787148,0,16
90804816,0,9
90821460,1,0
90838104,1,16
90855784,9,121
90874492,4,169
90893212,16,81
90911940,4,9
90928576,4,169
90947292,16,225
90967068,9,36
90984744,0,9
91001384,0,49
91019044,0,16
91036736,1,25
91054420,1,36
91072100,0,16
91089784,0,4
91106416,0,25
91124100,0,25
91141776,0,49
91159452,1,64
91177144,0,16
91194824,4,64
91212496,25,625
91232240,36,196
91252020,1,0
91268656,0,16
91286336,1,4
91302984,1,144
91321700,0,1
91338348,1,121
91357064,16,100
91376816,4,4
91393448,0,0
91410096,0,0
91426720,0,4
91443376,0,36
91461052,1,49
91478740,1,36
91496412,0,4
91513056,1,0
91529688,1,0
91546336,0,9
91562972,0,9
91579616,1,4
91596252,9,0
91612896,1,1
91629524,0,9
91646176,0,9
91662816,0,0
91679452,4,0
91696092,0,4
91712752,0,1
91729380,36,4
91747052,16,4
91764744,4,0
91781392,64,4
91799064,625,4
91817788,196,25
91837548,0,36
91855232,361,0
91873940,1681,4
91893708,484,49
91913468,196,9
91932176,400,9
91950900,0,49
91968596,81,16
91987304,4,0
92003940,0,4
92020580,81,0
92038268,4,9
92054908,1,16
92072576,1,4
92089220,9,1
92105860,25,1
92123548,196,16
92143308,49,16
92162004,6561,4
92181772,11664,64
92203616,1296,625
92225436,2209,256
92247296,5625,81
92268084,6241,144
92289920,5776,841
92311788,529,1936
92333624,64,256
92353376,256,49
92373148,400,9
92391844,841,121
92412652,169,9
92431384,4096,36
92452168,841,256
92472972,1,225
92491692,289,121
92512500,3481,0
92532256,4096,225
92554096,289,4
92572816,289,1
92591536,49,81
92610252,961,25
92630044,1225,121
92651856,7056,9
92671608,2500,64
92692392,7225,784
92714252,13225,9
92735060,900,1764
92756896,961,121
92777696,196,169
92798492,196,4
92817212,169,0
92835940,81,144
92855696,1156,64
92876488,64,784
92896272,81,36
92914984,4,25
92932652,100,121
92953444,2209,25
92974264,81,81
92992968,3136,169
93014828,1764,25
93035628,16,1
93053304,81,1
93070976,289,25
93090740,81,0
93108420,49,25
93127136,324,0
93145860,81,1
93163540,1,36
93181228,9,25
93198888,289,0
93217612,576,0
93236332,961,25
93256104,100,81
93275852,324,16
93295628,400,9
93314336,841,9
93333048,225,0
93351784,225,49
93371540,289,0
93390248,361,81
93410012,2401,0
93429768,1600,36
93450588,441,16
93470340,64,49
93489052,361,64
93508820,441,9
93527536,4,9
93544180,25,0
93561856,81,25
93580584,676,4
93599300,1444,4
93619056,900,64
93638808,1521,64
93659600,4900,36
93680404,5329,100
93702260,2116,256
93724100,64,144
93743852,576,16
93763612,1681,81
93784412,9801,36
93805208,5929,225
93827040,4,484
93845780,1296,81
93866576,1225,9
93886336,2401,1
93906112,2401,49
93926892,1,256
93945620,676,16
93965372,324,121
93986184,4,169
94004904,4,81
94022576,36,36
94041296,324,4
94060024,25,16
94078740,0,0
94095380,144,4
94114092,9,16
94131772,289,121
94152572,25,9
94170276,4,25
94187944,64,49
94206648,900,25
94226412,1936,49
94247216,576,100
94268024,1,64
94285700,49,0
94303388,225,1
94322104,625,4
94340808,36,16
94359524,9,25
94377220,81,1
94394904,289,1
94413620,529,16
94433376,324,36
94453152,225,16
94472892,841,9
94491620,529,36
94511376,49,36
94530104,256,4
94548820,169,0
94567540,225,4
94586248,841,0
94604968,169,49
94624732,4,16
94642420,1,0
94659056,25,1
94676740,16,4
94694428,225,0
94713148,400,16
94732896,81,64
94751624,0,36
94769316,25,4
94786980,121,0
94805708,900,1
94824404,2304,0
94844184,3249,36
94864976,400,36
94884736,1089,9
94904496,4624,0
94924252,2304,36
94945052,289,196
94965856,1764,225
94987688,196,169
95008492,1369,121
95030348,225,16
95050112,1,81
95067780,256,4
95086492,225,0
95105228,4,0
95121852,289,169
95142664,900,121
95163464,529,49
95183224,25,169
95202972,256,121
95223772,900,4
95242504,289,64
95262256,64,121
95282020,529,9
95300740,81,100
95320500,49,9
95338180,4,0
95354824,289,1
95373536,196,4
95392252,0,16
95409940,225,1
95428664,529,1
95447384,0,25
95465056,16,16
95483784,121,9
95502508,729,0
95521220,1024,4
95540968,529,81
95560736,169,100
95581540,1521,49
95602328,784,0
95621044,729,49
95640820,1296,36
95661616,25,121
95681376,1600,144
95703224,1600,1
95722972,49,169
95742744,1296,25
95763528,4761,4
95783296,961,225
95804100,121,121
95824900,16,0
95842592,9,36
95860272,361,4
95878984,576,25
95898744,81,1
95916436,0,9
95933064,121,0
95951772,169,25
95971540,841,1
95990260,9,9
96006884,169,81
96026668,2025,1
96046416,144,25
96066168,729,169
96086956,1296,1
96106724,1936,9
96126500,4356,25
96147292,2401,289
96169148,3364,144
96190972,1681,16
96211772,144,324
96232580,144,81
96252336,49,81
96271060,289,16
96290808,484,9
96309548,81,0
96327220,0,0
96343864,100,1
96362580,25,9
96380256,49,1
96397928,0,9
96414580,484,1
96433304,2209,4
96453064,1156,81
96473856,1089,144
96495692,2025,49
96516508,196,49
96536256,225,4
96554968,2304,36
96575768,9409,1
96595524,6400,16
96616336,0,361
96635056,1089,64
96655840,576,256
96676660,1024,64
96697464,784,4
96716188,529,225
96736972,100,121
96757784,484,9
96776500,3969,16
96797288,1681,25
96818080,729,64
96837852,2304,0
96857624,324,16
96877372,64,64
96896104,4,25
96913772,0,25
96931448,1444,49
96952244,784,16
96972020,81,121
96991780,1936,36
97012564,8100,81
97033388,3025,361
97055224,9,361
97073932,16,121
97093696,729,64
97113460,4,36
97131144,1296,0
97150876,3969,49
97171692,2025,144
97193540,0,196
97212260,81,81
97230988,49,4
97248660,529,0
97267364,361,4
97286072,100,36
97305840,100,4
97324572,9,4
97341212,625,16
97360984,1225,36
97381772,1024,225
97403600,0,0
97420228,0,784
97438984,13924,2116
97462892,900,1444
97484716,144,36
97504484,144,36
97524256,81,4
97541924,729,16
97561704,4225,81
97582492,3249,9
97602248,1764,289
97624092,361,64
97643856,1521,1
97663612,841,36
97683372,1764,1
97703148,1,49
97720816,1,0
97737460,121,16
97757224,9,1
97773868,100,1
97792576,361,9
97811296,169,4
97830024,400,9
97848744,1521,4
97868480,5184,64
97889292,3249,676
97911136,289,729
97931924,289,9
97950640,841,9
97969364,21025,289
97992252,0,729
98010980,7921,2401
98033848,2601,961
98055700,3136,1
98075436,9604,49
98096248,11449,169
98119136,361,225
98139932,3600,441
98161772,8836,16
98182556,11236,144
98205444,324,256
98226248,1296,529
98248080,4761,16
98268880,361,25
98288652,18769,484
98311520,625,841
98332328,81,961
98352088,0,169
98370820,121,196
98391616,324,289
98412416,36,169
98432176,784,25
98451924,441,4
98470656,36,81
98489380,25,0
98507072,36,225
98526820,64,25
98545544,25,196
98565288,5929,4
98585044,10000,100
98607932,961,361
98628748,100,121
98649544,4,1
98666172,169,0
98684876,5776,9
98704660,13924,49
98726488,9604,841
98748320,3249,1024
98771224,2209,676
98793044,10000,144
98815908,4096,441
98837780,5625,841
98859600,17424,225
98882480,6561,841
98904360,144,1681
98926176,64,169
98945936,324,36
98965684,2916,225
98987540,2304,441
99009376,25,961
99029132,1296,64
99049936,169,196
99070736,729,0
99089460,289,0
99108180,16,25
99126888,324,81
99146648,1024,4
99166432,1849,16
99187212,169,100
99208008,676,81
99227784,16,144
99247528,2025,100
99269352,7744,121
99291224,841,100
99312008,3136,196
99333820,0,324
99352560,0,576
99371296,900,1521
99393104,12321,1600
99417036,784,81
99436808,6400,361
99458644,576,400
99479444,6400,144
99501300,6400,121
99523136,484,81
99542892,4356,256
99564740,3481,256
99586564,400,324
99607352,1296,256
99629220,2304,144
99651036,0,0
99667692,3136,529
99689536,3844,1444
99712412,11449,256
99735276,7569,400
99757120,529,49
99776888,625,324
99797692,81,121
99817444,256,0
99836176,1444,4
99855944,1089,9
99875696,400,144
99896496,1156,121
99918332,169,0
99937052,1444,81
99957856,8836,36
99978660,6889,225
100000488,4,400
100020256,4096,16
100042088,3600,100
100064968,49,144
100085788,576,121
100107620,441,4
100127372,2025,64
100149200,0,81
100167924,3364,64
100189772,1,81
100208488,25,144
100229308,729,25
100250096,729,64
100270900,100,196
100292744,2601,16
100314580,196,64
100335376,1,49
100354112,576,25
100374904,841,64
100395680,5776,4
100416500,1,484
100436248,4356,169
100459140,784,25
100479928,400,1
100499708,225,81
100520484,12321,1
100542328,6084,144
100565212,3136,225
100588096,2704,9
100608888,3025,144
100631764,3600,100
100654640,484,441
100676488,5041,144
100699384,1024,1
100720164,4225,484
100743056,10404,4
100764896,625,961
100786716,7921,225
100809596,2916,144
100832504,1296,324
100855380,2809,0
100876184,900,16
100896972,576,36
100917776,1369,100
100940656,169,81
100961452,900,36
100982248,1156,4
101003052,100,36
101023852,169,81
101044648,1764,25
101066500,225,36
101087300,4,121
101107060,625,36
101127848,324,0
101147600,2116,16
101169448,5476,1
101190260,21609,36
101213112,6084,484
101236016,5776,1089
101259916,0,225
101279676,5929,1156
101303612,9801,2704
101327520,24336,324
101351460,22201,2116
101376404,6724,400
101399276,0,361
101419048,20449,729
101442980,5625,3249
101466888,144,225
101488744,5776,16
101510564,625,0
101530340,16,225
101551148,484,36
101571948,144,1
101591700,16,16
101611448,1369,36
101633292,3025,49
101655116,144,196
101676964,7569,121
101699852,0,121
101719612,8649,1089
101743548,289,1225
101766424,529,81
101787224,196,36
101808016,256,16
101828816,9,121
101848568,16,0
101867296,0,16
101886028,169,9
101905780,36,361
101926576,144,400
101948424,81,1
101967156,81,1
101985856,9,4
102003544,64,9
102022260,0,0
102039948,9,36
102058660,16,4
102077368,0,0
102095068,1,16
102113784,0,1
102131456,289,16
102152268,25,9
102170996,441,9
102190736,484,1
102210492,361,25
102231296,256,25
102252100,196,81
102272888,25,81
102292660,4,64
102311388,4,144
102331132,196,81
102351944,169,25
102372740,25,4
102391464,36,9
102410180,64,1
102428908,4,9
102446580,144,289
102468416,625,784
102490260,324,1369
102513128,100,1444
102536028,289,441
102557856,324,196
102579696,0,3025
102600480,225,5625
102623380,196,3249
102646256,196,169
102668100,36,121
102688908,9,576
102708660,64,361
102729452,100,676
102751308,196,400
102773144,36,9
102791864,16,100
102812664,16,25
102832428,9,324
102852168,16,1936
102874016,16,1681
102895860,81,121
102916656,4,4
102934332,36,121
102955144,0,16
102973868,9,0
102991536,1,625
103011288,36,441
103032104,25,900
103052888,81,961
103073696,81,289
103094508,9,169
103114268,9,1
103131944,4,784
103151700,121,484
103173548,25,4
103192260,0,49
103210976,9,36
103229708,16,289
103250496,49,64
103270248,0,4
103287948,1,36
103306668,1,9
103324336,0,625
103344092,16,400
103364896,0,81
103383612,81,576
103404420,36,49
103424188,1,0
103441860,9,36
103460576,25,4
103479288,9,9
103496980,1,0
103514664,4,0
103532336,0,16
103551064,4,100
103570820,9,196
103590572,9,676
103610324,36,1369
103632180,49,324
103652976,0,0
103670660,1,4
103688340,9,81
103707056,1,169
103726824,4,196
103746596,9,9
103764272,25,961
103785060,121,225
103806892,16,121
103827704,0,25
103846436,1,0
103864104,0,25
103882824,4,16
103901536,64,16
103921296,16,529
103942100,25,1521
103963936,121,1369
103986816,64,144
104007612,0,25
104026340,0,100
104046096,9,1
104063776,0,16
104082500,4,25
104101212,9,9
104118896,4,4
104136588,4,1
104154260,0,169
104174008,81,144
104194816,100,169
104216664,16,25
104236432,1,16
104255140,0,0
104272812,4,25
104291536,16,100
104312348,9,4
104330024,1,49
104348736,0,81
104367452,25,361
104388264,16,0
104406968,4,25
104425708,4,196
104445468,9,529
104465224,81,225
104486020,49,9
104504748,4,64
104523456,4,49
104542168,9,225
104561948,9,0
104579636,16,9
104598344,1,36
104617060,1,0
104634740,9,4
104652412,1,0
104670108,16,121
104690900,25,225
104711704,0,1
104729380,36,81
104749140,25,9
104767860,4,0
104785540,1,9
104803216,25,144
104824020,9,169
104843776,1,4
104861452,1,49
104880176,1,25
104898900,16,25
104918660,1,100
104938404,16,49
104958188,16,196
104978972,9,1296
104999764,100,1764
105022668,81,289
105043460,0,16
105062176,0,4
105079864,0,25
105098592,4,49
105117304,1,25
105136020,9,49
105154744,4,25
105173460,0,25
105192176,4,0
105209852,16,324
105230660,9,676
105250412,0,81
105269144,4,9
105286820,4,144
105306580,1,169
105326340,0,25
105345068,1,100
105364828,49,484
105385620,81,576
105406424,36,784
105427228,25,900
105448016,49,729
105468808,16,225
105489616,1,0
105507300,4,36
105526008,4,9
105543700,25,0
105562424,0,4
105580100,4,16
105598820,1,169
105618580,9,121
105638340,4,16
105657072,1,4
105674728,9,100
105694496,9,100
105714252,1,36
105732972,4,169
105752740,4,1156
105773532,49,361
105794340,0,16
105813056,0,64
105831796,1,1
105849468,64,529
105870248,144,1089
105893152,16,484
105913944,4,196
105933700,36,4
105952420,0,144
105972180,16,225
105992976,1,256
106012744,36,64
106032500,64,36
106052260,9,1
106069940,4,9
106087632,1,1
106105304,4,36
106124020,0,144
106143788,1,9
106161472,0,196
106181216,16,576
106202008,4,1
106219708,16,144
106240496,4,0
106258176,1,121
106277948,4,9
106295624,9,25
106314336,0,25
106333056,1,1
106350740,0,9
106368428,1,4
106386100,1,169
106405848,25,361
106426664,1,225
106446420,1,4
106464096,9,256
106483856,16,256
106504648,9,36
106523368,4,0
106541068,4,4
106558744,0,1
106576432,0,1
106594104,1,9
106611788,4,1
106629464,9,16
106648180,64,4
106666900,9,0
106684580,0,36
106703296,4,144
106723060,4,16
106741788,16,144
106762596,1,784
106782340,9,529
106802096,9,4
106819788,9,1
106837464,9,4
106855144,36,36
106874912,1,0
106892584,4,0
106910248,16,25
106930020,4,64
106948752,1,100
106968504,1,1
106986176,9,49
107004884,9,4
107022584,0,121
107042348,0,81
107061056,0,0
107078744,0,36
107097460,16,225
107118252,9,36
107136972,0,1
107154660,16,25
107174428,1,4
107192100,0,9
107209792,1,0
107227460,1,169
107247220,9,225
107266972,0,100
107286752,1,16
107305460,16,1
107324184,1,1
107341872,1,64
107360588,0,9
107378244,0,196
107398016,0,81
107416740,0,81
107435460,0,81
107454168,0,4
107471852,1,64
107490580,1,16
107509300,0,25
107528028,9,1
107545700,0,81
107564424,25,9
107583128,16,0
107601848,4,0
107619544,1,0
107637208,4,0
107654900,9,9
107672572,1,36
107691300,1,121
107711060,0,64
107729776,0,16
107748512,0,1
107766176,4,64
107784900,1,4
107802580,9,49
107821296,9,361
107841072,0,1
107858728,25,361
107879544,49,1
107898264,1,169
107918020,0,1
107935692,25,841
107956508,16,676
107977300,9,4
107994980,16,144
108015780,0,784
108035536,36,1444
108057372,36,729
108078184,16,225
108098988,36,36
108118744,0,225
108138492,100,441
108160340,49,36
108180104,0,100
108199852,0,289
108219624,4,81
108238340,1,9
108256020,9,25
108274744,36,529
108295548,0,144
108315300,4,1
108332968,16,4
108351704,1,64
108370412,4,289
108390172,0,25
108408904,4,4
108426580,36,4
108445300,1,100
108465056,4,625
108484816,1,324
108504580,1,49
108523304,1,4
108540984,9,16
108559700,9,4
108577372,1,81
108596100,1,36
108614828,0,0
108632492,0,576
108652252,64,1444
108674100,81,256
108694912,1,169
108714660,0,289
108734416,4,196
108754192,9,196
108773940,16,100
108794740,9,400
108814512,64,4
108833212,9,0
108850896,1,36
108869616,9,361
108889380,81,1
108908092,36,529
108928888,9,256
108948668,9,25
108967372,25,1156
108989212,361,3249
109012108,225,529
109033932,0,256
109053696,25,1764
109075536,100,1156
109098412,9,289
109118176,49,100
109138992,49,36
109158748,1,64
109177468,0,16
109196176,16,25
109215940,4,400
109235692,1,121
109255460,1,36
109274176,4,81
109292896,9,16
109311620,0,4
109329296,0,100
109349056,1,324
109368824,25,1600
109390664,9,121
109410420,16,25
109430192,4,16
109448908,4,81
109467604,4,256
109487388,4,400
109507128,16,1225
109528984,36,169
109549780,16,4
109568492,64,324
109589292,64,121
109610096,4,25
109628824,0,49
109647540,0,289
109667288,9,0
109684984,1,49
109703700,0,36
109722420,4,16
109741140,1,0
109758820,1,0
109776492,1,36
109795220,0,81
109813940,4,25
109832656,16,144
109853460,25,361
109874256,25,9
109892976,0,36
109911708,1,49
109930416,4,225
109950188,25,25
109969948,1,9
109987620,0,25
110006344,0,4
110024024,1,4
110041696,4,9
110059376,4,49
110078096,16,169
110098900,4,4
110116576,9,256
110136340,16,225
110157152,16,1
110175856,25,100
110196656,9,25
110215380,0,81
110234100,4,324
110253852,4,256
110273628,0,0
110291308,16,196
110312100,36,81
110331852,16,25
110351628,4,49
110370348,9,4
110388020,1,4
110405712,1,121
110425472,9,324
110445212,9,256
110464976,9,576
110484756,36,361
110505548,16,9
110524260,1,25
110542976,16,121
110563776,49,225
110584580,36,169
110605388,1,1
110623068,9,4
110640740,4,169
110660492,1,441
110680264,1,196
110700020,4,36
110718740,9,9
110736428,1,100
110756192,9,1
110773860,16,16
110793612,81,144
110814420,49,784
110835220,64,1156
110857056,36,784
110877852,9,784
110897612,9,529
110917384,9,9
110935072,0,1
110952732,0,0
110970408,1,16
110989132,0,36
111007860,0,49
111026592,1,49
111045288,1,25
111064004,1,16
111082748,4,25
111101468,16,64
111121216,0,1
111138908,4,1
111156588,0,25
111175300,1,25
111194008,4,81
111212752,1,196
111232508,4,4
111250188,9,100
111269940,4,144
111289696,49,16
111309456,1,144
111329212,4,0
111346912,4,36
111365620,25,100
111386424,16,9
111405144,25,100
111425948,16,729
111446744,100,1089
111469624,4,324
111489380,1,25
111508112,4,1
111525788,9,1
111543468,4,0
111561128,0,81
111579848,64,49
111599604,64,225
111620420,4,100
111640168,64,625
111660956,169,2601
111683860,9,289
111703620,49,289
111724412,4,64
111743148,16,9
111761856,1,100
111781624,36,25
111801384,49,4
111820092,0,1
111837776,4,1
111855456,4,4
111873160,4,1
111890828,9,0
111908496,4,4
111926176,0,0
111943860,1,0
111961528,0,4
111979216,0,9
111996884,0,4
112014576,1,1
112032260,0,4
112049936,9,9
112067628,0,16
112086348,0,36
112105048,36,0
112123780,16,9
112142496,16,4
112161220,36,4
112179940,36,9
112198652,25,4
112217376,9,4
112235060,1,0
112252740,0,1
112270416,0,1
112288100,9,0
112305768,36,0
112324492,1,0
112342176,16,0
112360896,16,0
112379620,9,0
112397288,4,0
112414972,0,0
112432656,1,0
112450328,0,0
112468020,1,1
112485696,1,0
112503380,0,0
112521064,0,0
112538744,0,0
112556416,0,0
112574084,0,0
112591768,1,0
112609460,1,0
112627140,1,0
112644816,0,0
112662480,0,0
112680172,0,0
112697848,0,0
112715536,0,0
112733224,0,0
112750896,0,0
112768568,0,0
112786256,0,0
112803936,0,0
112821616,0,0
112839296,0,0
112856968,0,0
112874652,0,0
112892340,1,1
112910012,0,0
112927688,0,0
112945372,0,0
112963048,0,0
112980724,0,0
112998416,0,0
113016096,0,0
113033768,0,0
113051452,0,0
113069136,0,0
113086816,0,0
113104496,0,0
113122168,0,0
113139856,0,0
113157532,0,0
113175204,0,0
113192880,0,0
113210576,0,0
113228256,0,0
113245928,0,0
113263600,0,0
113281296,0,0
113298980,0,0
113316648,0,0
113334336,0,0
113352012,0,0
113369684,0,0
113387368,0,1
113405060,1,0
113422748,0,0
113440416,0,0
113458084,0,0
113475772,0,0
113493448,0,0
113511132,0,0
113528800,0,0
113546492,0,0
113564176,0,0
113581848,0,0
113599536,0,1
113617220,0,0
113634896,0,0
113652564,0,0
113670256,0,0
113687940,0,0
113705616,0,0
113723292,1,0
113740976,0,0
113758656,0,0
113776328,0,0
113794000,0,0
113811696,0,0
113829376,0,0
113847048,0,0
113864732,0,0
113882424,0,1
113900088,0,0
113917764,0,0
113935456,0,0
113953136,0,1
113970820,1,0
113988496,0,0
114006176,0,0
114023844,0,0
114041528,0,0
114059200,0,0
114076892,0,0
114094568,0,0
114112248,0,0
114129936,0,0
114147612,0,0
114165296,0,0
114182976,0,0
114200652,0,0
114218336,0,0
114236008,0,0
114253700,0,1
114271380,0,0
114289060,0,0
114306736,0,0
114324400,0,0
114342096,0,0
114359768,1,0
114377452,0,0
114395120,0,0
114412816,0,0
114430492,0,0
114448176,0,0
114465856,0,0
114483536,0,0
114501208,0,0
114518888,0,0
114536576,0,0
114554260,0,0
114571928,0,0
114589608,0,0
114607296,0,0
114624968,0,0
114642648,0,0
114660320,0,0
114678016,0,0
114695696,0,0
114713368,0,0
114731056,0,0
114748736,0,0
114766416,0,0
114784100,0,0
114801780,0,0
114819456,0,0
114837128,0,0
114854808,0,0
114872496,0,0
114890168,0,0
114907844,0,0
114925524,0,0
114943216,0,0
114960892,1,0
114978580,0,0
114996256,0,0
115013944,0,0
115031616,0,0
115049288,0,0
115066976,0,0
115084656,0,0
115102328,0,0
115120008,0,0
115137696,0,0
115155364,0,0
115173048,0,0
115190724,0,0
115208416,0,0
115226088,0,0
115243768,0,0
115261456,0,0
115279136,0,0
115296816,0,0
115314488,0,0
115332172,0,0
115349852,0,0
115367528,0,0
115385204,0,0
115402896,0,0
115420576,0,0
115438248,0,0
115455920,0,0
115473612,0,0
115491284,0,0
115508968,0,0
115526640,0,0
115544336,0,0
115562016,0,0
115579688,0,0
115597372,0,0
115615052,0,0
115632724,0,0
115650404,0,0
115668096,0,0
115685776,0,0
115703444,0,0
115721124,0,0
115738816,0,0
115756488,0,0
115774176,0,0
115791840,0,0
115809532,0,0
115827216,0,0
115844896,0,0
115862576,0,0
115880256,0,0
115897932,0,0
115915608,0,0
115933296,0,0
115950976,0,0
115968648,0,0
115986328,0,0
116004016,0,0
116021688,0,0
116039376,0,0
116057040,0,0
116074732,0,0
116092408,0,0
116110084,0,0
116127772,0,0
116145456,0,0
116163128,0,0
116180812,0,0
116198496,0,0
116216172,0,0
116233848,0,0
116251528,0,0
116269216,0,0
116286888,0,0
116304568,0,0
116322240,0,0
116339936,0,0
116357608,0,0
116375288,0,0
116392972,0,0
116410652,0,0
116428328,0,0
116446012,0,0
116463704,0,0
116481372,0,0
116499056,0,0
116516736,0,1
116534412,0,0
116552096,0,0
116569764,0,0
116587440,0,0
116605136,0,0
116622808,0,0
116640488,0,0
116658164,0,0
116675864,0,0
116693536,0,0
116711216,0,0
116728896,0,0
116746576,0,0
116764248,0,0
116781928,0,0
116799616,0,0
116817292,0,0
116834968,0,0
116852640,0,0
116870332,0,0
116888008,0,0
116905688,0,0
116923360,0,0
116941056,0,0
116958744,0,0
116976416,0,0
116994092,0,0
117011772,0,0
117029444,0,0
117047128,0,0
117064816,0,0
117082492,0,0
117100168,0,0
117117848,0,0
117135536,0,0
117153208,0,0
117170896,0,0
117188564,0,0
117206252,0,0
117223928,0,0
117241616,0,0
117259296,0,0
117276972,0,0
117294648,0,0
117312324,0,0
117330012,0,0
117347692,0,0
117365364,1,0
117383048,0,0
117400732,0,0
117418404,0,0
117436088,0,0
117453764,0,0
117471452,0,0
117489124,0,0
117506804,0,0
117524496,0,0
117542172,0,0
117559844,0,0
117577524,0,0
117595212,0,0
117612892,0,0
117630564,0,0
117648252,0,0
117665936,0,0
117683616,0,0
117701296,0,0
117718960,0,0
117736656,0,0
117754328,0,0
117772008,0,0
117789680,0,0
117807376,0,0
117825056,0,0
117842728,0,0
117860416,0,0
117878096,0,0
117895768,0,0
117913444,0,0
117931136,0,0
117948816,0,0
117966496,0,0
117984172,0,1
118001852,0,0
118019528,0,0
118037208,0,0
118054880,0,0
118072576,0,0
118090264,0,0
118107928,0,0
118125616,0,0
118143296,0,0
118160980,0,1
118178660,0,1
118196332,0,0
118214012,0,0
118231688,0,0
118249364,0,0
118267056,0,0
118284736,0,1
118302408,0,0
118320084,0,0
118337780,0,0
118355456,1,0
118373136,0,0
118390812,0,0
118408496,0,0
118426168,0,0
118443860,0,0
118461536,0,0
118479216,0,0
118496896,0,0
118514568,0,0
118532252,0,0
118549928,0,0
118567612,0,0
118585288,0,0
118602976,0,0
118620648,0,0
118638328,0,0
118656016,0,0
118673696,0,0
118691368,0,0
118709044,0,0
118726732,0,0
118744416,0,0
118762088,0,0
118779772,0,0
118797452,0,0
118815140,0,0
118832820,0,0
118850492,1,0
118868180,0,0
118885856,0,0
118903528,0,0
118921200,0,0
118938896,0,0
118956576,0,0
118974252,1,0
118991936,0,0
119009616,0,0
119027284,0,0
119044968,0,0
119062656,0,0
119080332,0,0
119098008,0,0
119115684,0,0
119133376,0,0
119151048,0,0
119168728,0,0
119186400,0,0
119204100,0,0
119221780,0,0
119239448,0,0
119257136,0,0
119274812,0,0
119292488,0,0
119310168,0,0
119327856,0,0
119345536,0,0
119363216,0,0
119380888,0,0
119398576,0,0
119416256,0,0
119433928,0,0
119451600,0,0
119469296,0,0
119486964,0,0
119504648,0,0
119522336,0,0
119540016,0,0
119557688,0,0
119575376,0,0
119593056,0,0
119610736,0,0
119628408,0,0
119646088,0,0
119663776,0,1
119681444,0,0
119699124,0,0
119716800,0,0
119734496,0,0
119752168,0,0
119769848,0,0
119787532,0,0
119805216,0,0
119822888,0,0
119840576,0,1
119858260,1,0
119875936,0,0
119893608,0,0
119911288,0,0
119928976,0,0
119946656,0,0
119964328,0,0
119982008,0,0
119999708,0,1
120017376,0,0
120035048,0,0
120052724,0,1
120070416,0,0
120088096,0,0
120105776,0,0
120123456,1,0
120141136,0,0
120158808,0,0
120176496,0,0
120194176,0,0
120211860,0,0
120229528,0,0
120247200,0,0
120264892,0,0
120282564,0,0
120300244,0,0
120317920,0,0
120335628,0,1
120353304,0,0
120370968,0,0
120388656,0,0
120406340,0,0
120424004,0,0
120441688,0,0
120459376,0,0
120477056,0,0
120494736,0,0
120512408,0,0
120530096,0,0
120547764,0,0
120565448,0,0
120583124,0,0
120600816,0,0
120618488,0,0
120636172,0,0
120653856,0,0
120671532,0,0
120689208,0,0
120706888,0,0
120724576,0,0
120742260,0,0
120759936,0,0
120777608,0,0
120795296,0,0
120812976,0,0
120830656,0,0
120848324,0,0
120866012,0,0
120883688,0,0
120901376,0,1
120919052,0,0
120936736,0,0
120954408,0,0
120972100,0,0
120989776,0,0
121007456,0,0
121025128,0,0
121042808,0,0
121060496,0,0
121078172,0,0
121095848,0,0
121113520,0,0
121131216,0,0
121148888,0,0
121166564,0,0
121184244,0,0
121201932,0,0
121219616,0,0
121237288,0,0
121254976,0,0
121272660,0,0
121290336,0,0
121308004,0,0
121325696,0,0
121343380,0,0
121361056,0,0
121378720,0,0
121396416,0,0
121414096,0,0
121431768,0,0
121449440,0,0
121467136,0,0
121484812,0,0
121502484,0,0
121520176,0,0
121537852,0,0
121555528,0,0
121573216,0,0
121590900,0,0
121608576,0,0
121626248,0,0
121643928,0,0
121661616,0,0
121679288,0,0
121696968,0,0
121714640,0,0
121732344,0,1
121750004,0,0
121767688,0,0
121785384,0,0
121803060,0,0
121820740,0,0
121838408,4,0
121856108,1,1
121873776,0,1
121891448,0,0
121909128,4,0
121926824,1,0
121944500,196,0
121964268,225,1
121984028,16,9
122002744,16,4
122021448,64,0
122040180,64,0
122058908,64,1
122077620,16,49
122097384,49,196
122118188,64,144
122138972,16,256
122159772,169,289
122181620,196,4
122201384,25,529
122222176,16,784
122242972,25,144
122263788,64,49
122283540,225,81
122304328,49,676
122325144,1,1936
122345944,9,484
122365704,9,9
122383376,4,25
122402092,16,400
122422892,144,144
122444728,16,484
122465540,361,1089
122488408,100,729
122510256,9,16
122528992,36,0
122547704,36,4
122566420,81,121
122587224,49,225
122608028,1,0
122625700,0,484
122645456,1,196
122665224,4,484
122684980,9,1521
122705780,4,64
122724496,1,1156
122745296,0,1681
122766100,16,289
122786912,0,9
122804588,16,0
122823300,0,484
122843056,49,784
122863868,16,256
122884660,1,36
122903388,16,0
122922108,16,64
122941860,1,784
122961616,4,256
122981372,1,144
123001144,4,784
123020892,25,169
123041696,1,100
123061464,4,361
123081220,0,25
123099940,4,100
123119704,16,9
123138420,9,16
123157148,4,0
123174812,49,4
123193548,1,256
123213300,81,1
123232020,1,9
123249704,16,361
123270500,4,64
123289216,16,1369
123311052,49,289
123331864,49,324
123352660,64,1024
123374496,0,900
123394264,25,49
123414028,16,4
123432732,9,400
123452508,100,2916
123475388,225,625
123497228,49,1
123515944,36,25
123535712,16,0
123554420,1,25
123573140,0,289
123592908,0,0
123610584,1,4
123628264,9,225
123648028,9,484
123667788,16,324
123688576,64,169
123709372,4,1156
123730188,4,676
123749932,0,100
123769696,25,4
123788424,100,81
123809204,121,1
123828980,25,144
123849788,1,16
123868504,1,121
123888264,1,441
123908012,1,196
123927788,0,0
123945464,4,16
123964180,16,16
123983944,9,36
124002664,0,9
124020340,0,4
124038016,36,256
124058816,225,25
124079608,64,400
124100420,4,100
124120180,81,121
124140968,25,324
124161784,36,4
124180504,144,16
124201296,49,196
124222096,4,576
124241860,121,961
124263704,289,625
124285532,49,16
124305288,49,144
124326096,256,3249
124348976,64,900
124369776,64,361
124390588,36,961
124411368,0,256
124431136,49,81
124450904,81,576
124471696,9,324
124491452,0,36
124510168,4,144
124529952,25,484
124550740,9,256
124570492,1,4
124588180,64,64
124607932,64,361
124628732,25,961
124649540,16,576
124670348,1,4
124688016,64,100
124708812,196,64
124729616,100,36
124750408,25,9
124769132,9,81
124787868,9,64
124806572,16,64
124826332,4,81
124845052,4,324
124864820,25,1444
124886652,49,841
124907452,100,1
124927220,36,529
124948016,36,1296
124969848,121,676
124991704,36,225
125012508,16,729
125033300,16,1089
125055148,9,225
125074904,4,25
125093616,16,49
125113384,1,81
125132108,36,841
125152900,121,1521
125175764,4,169
125195540,9,81
125214248,0,100
125234024,1,49
125252748,16,169
125273532,16,256
125294336,4,4
125312028,25,144
125332828,25,1
125351528,4,25
125370248,1,4
125387940,1,0
125405628,4,16
125424340,1,16
125443052,0,25
125461776,0,16
125480492,9,36
125499216,36,100
125520028,4,144
125539784,9,81
125558488,1,4
125576164,36,81
125595944,36,16
125615700,1,625
125635464,1,100
125655228,1,196
125674972,4,625
125694736,1,49
125713464,1,196
125733232,9,1
125750900,0,36
125769616,1,225
125789388,1,225
125809144,1,121
125828908,1,100
125848664,9,225
125868420,0,25
125887136,0,324
125906892,25,729
125927708,25,121
125948496,0,81
125967216,4,100
125986992,9,4
126004664,4,256
126024428,9,225
126044188,16,16
126063948,36,81
126083704,1,1
126101384,9,64
126120100,16,169
126140904,1,100
126160664,0,1
126178356,1,49
126197072,9,1
126214740,0,36
126233456,4,25
126252188,0,225
126271940,1,225
126291708,1,9
126309376,4,121
126329144,9,529
126348888,81,729
126369696,81,484
126390508,36,961
126411304,64,676
126432096,0,289
126451856,81,1024
126473700,4,36
126492420,36,100
126513228,4,9
126530900,0,81
126549612,16,49
126569364,36,1296
126591228,49,1681
126613048,64,0
126631776,1,289
126651544,9,256
126671300,0,676
126691060,9,441
126710820,16,196
126731628,25,100
126752408,36,144
126773204,25,256
126794020,9,49
126812740,0,1
126830424,1,1
126848108,4,0
126865784,1,0
126883460,25,16
126903216,25,36
126922980,0,64
126941704,25,225
126962500,4,100
126982268,0,121
127002028,25,100
127022816,0,36
127041528,0,25
127060264,16,4
127078976,16,169
127099784,49,289
127120584,16,0
127139304,9,289
127159056,0,961
127178816,0,100
127198588,4,36
127217296,0,9
127234976,9,784
127254748,4,441
127274496,1,100
127294260,4,225
127314020,4,169
127333792,25,9
127352504,0,49
127371208,25,324
127392016,0,196
127411780,81,144
127432576,49,121
127453392,4,36
127472092,36,324
127492896,9,225
127512660,0,121
127532424,100,25
127553216,4,1600
127574008,784,2304
127596892,144,1156
127619768,1,1024
127640568,144,961
127662416,121,841
127684264,25,1
127702984,1,841
127722740,36,441
127743540,4,100
127763292,1,36
127782008,36,961
127802804,169,3481
127825700,121,1024
127848596,0,0
127866272,4,144
127886016,64,841
127906804,324,841
127928664,64,64
127948416,9,324
127968168,0,784
127987944,1,361
128007716,9,1
128025372,0,49
128044104,0,441
128063860,9,16
128082580,1,0
128100256,1,9
128117948,0,144
128137696,25,25
128157468,16,225
128178248,0,841
128198028,0,361
128217784,49,49
128237536,81,121
128258340,1,121
128278092,49,16
128297860,49,49
128317628,25,0
128336332,36,64
128356096,64,1
128374820,0,144
128394580,4,289
128414332,16,64
128434092,9,25
128452824,1,9
128470496,1,64
128489216,1,36
128507952,1,4
128525628,4,64
128544340,9,289
128564100,1,256
128583860,0,324
128603620,1,100
128623376,4,16
128642108,9,25
128660820,1,49
128679528,0,25
128698252,0,36
128716980,1,64
128735700,0,4
128753388,1,49
128772104,1,36
128790816,16,256
128811624,9,225
128831372,4,169
128851152,9,1
128868824,9,81
128887540,49,36
128907300,1,36
128926024,1,9
128943696,0,100
128963452,4,400
128983220,0,64
129001940,0,16
129020660,1,0
129038348,16,169
129059152,25,289
129079944,4,144
129099700,0,36
129118432,1,64
129137140,1,289
129156888,4,81
129175624,4,100
129195384,25,400
129216176,16,121
129236976,0,9
129254660,9,36
129273384,0,169
129293140,16,361
129313956,1,4
129331616,36,324
129352412,36,400
129373216,25,961
129394020,100,1521
129416896,49,121
129437688,9,25
129456428,1,36
129475140,144,16
129495952,9,1
129513624,0,16
129532332,16,576
129553128,36,1089
129574976,100,784
129596824,0,289
129616584,0,1
129634244,0,81
129652980,0,49
129671700,1,36
129690420,16,36
129710188,1,64
129728900,4,36
129747620,1,4
129765300,25,324
129786100,16,225
129806892,25,0
129825616,9,64
129844344,9,81
129863072,9,0
129880748,4,9
129898416,1,25
129917140,1,81
129935852,0,144
129955624,1,144
129975380,9,256
129995140,16,484
130015932,16,289
130036744,4,1
130054428,0,100
130074176,0,169
130093944,0,36
130112660,0,16
130131384,1,49
130150108,1,1
130167776,1,121
130187544,9,196
130207288,16,49
130227056,16,9
130245784,9,49
130264504,0,49
130283220,25,289
130304020,4,81
130322748,9,0
130340424,9,196
130360180,25,361
130380984,0,49
130399708,49,36
130419460,25,289
130440260,25,81
130460020,9,0
130477688,0,0
130495372,1,1
130513060,4,25
130531768,0,121
130551532,49,0
130570256,36,144
130591068,1,36
130609776,36,9
130628500,81,9
130647228,0,0
130664892,9,9
130682576,0,1
130700248,1,9
130717940,4,0
130735616,0,16
130754340,0,4
130772028,9,16
130790740,49,144
130811532,25,121
130832328,9,1
130850020,0,64
130868740,4,196
130888504,4,81
130907228,4,1
130924908,0,25
130943624,25,4
130962332,64,16
130982100,1,64
131000824,1,9
131018500,4,0
131036192,1,4
131053860,0,0
131071544,1,1
131089216,64,4
131107940,256,0
131127708,64,1
131146416,1,9
131164092,16,16
131183864,1,64
131202580,4,64
131221296,16,0
131240028,0,16
131258740,0,144
131278508,4,225
131298252,1,289
131318020,1,36
131336736,9,16
131355456,0,36
131374188,4,361
131393940,1,169
131413696,0,36
131432412,1,49
131451148,1,49
131469860,0,36
131488584,1,9
131506256,4,484
131526016,1,1600
131546808,25,361
131567608,4,64
131586348,16,16
131606104,9,196
131625860,1,324
131645628,0,121
131665376,1,4
131683056,0,100
131702820,25,121
131723632,36,1
131742336,0,9
131760012,4,100
131779780,0,144
131799540,0,36
131818260,4,361
131838020,9,196
131857784,1,0
131875448,1,100
131895208,1,81
131913944,1,25
131932664,1,1
131950340,0,1
131968020,4,25
131986736,0,25
132005456,4,9
132023140,4,4
132040828,9,0
132058508,4,0
132076180,1,0
132093860,9,0
132111548,1,9
132129212,0,9
132146896,4,16
132165600,0,9
132183296,1,0
132200976,4,0
132218652,9,9
132236336,4,36
132255060,9,0
132272732,64,4
132291460,0,36
132310188,36,81
132329940,16,16
132349704,0,0
132367400,4,0
132385068,1,0
132402736,25,1
132421456,25,1
132440180,1,16
132458896,0,1
132476576,16,16
132496336,36,36
132516108,100,25
132536900,144,16
132557700,9,9
132575388,4,0
132593068,0,4
132610740,0,4
132628404,0,0
132646100,16,1
132664816,16,1
132683536,0,1
132701216,0,0
132718896,36,1
132737616,25,4
132756344,25,9
132775064,36,0
132793784,4,1
132811460,4,0
132829120,0,0
132846828,1,0
132864500,25,4
132883220,1,0
132900908,9,4
132918584,25,1
132937304,169,1
132957060,25,4
132975784,324,9
132995540,144,1
133015288,4,9
133032976,16,0
133051700,0,1
133069368,0,1
133087056,36,1
133105776,25,0
133124500,64,0
133143220,100,4
133162976,9,16
133181708,1,1
133199388,4,0
133217060,0,4
133234752,4,0
133252436,49,4
133271140,36,0
133289860,1,0
133307548,9,1
133325236,81,0
133343936,49,0
133362648,9,4
133380340,1,4
133398012,0,0
133415704,25,1
133434424,36,1
133453140,25,0
133471852,169,0
133491612,64,4
133510340,4,4
133528020,64,0
133546740,144,0
133566512,4,1
133584176,121,1
133603936,100,4
133623696,9,4
133641376,0,1
133659052,16,0
133677772,64,1
133696492,4,4
133714188,0,1
133731868,81,0
133750580,36,1
133769316,4,9
133786980,144,0
133806740,529,0
133826488,16,81
133846260,144,81
133867064,36,0
133885776,64,1
133904504,196,1
133924268,169,0
133944012,64,4
133962724,1,16
133981468,0,0
133999144,9,1
134016824,16,1
134035548,100,0
134055300,25,16
134075060,1,1
134092736,4,1
134110424,16,1
134129144,1,1
134146824,9,4
134164508,64,1
134183224,196,4
134202980,1,1
134220660,4,1
134238352,100,0
134258096,64,0
134276820,0,9
134294488,16,1
134313228,0,1
134330904,0,0
134348588,25,0
134367304,36,1
134386016,16,4
134404736,0,4
134422416,1,4
134440096,9,0
134457776,4,0
134475460,1,1
134493136,16,0
134511868,16,4
134530584,0,1
134548260,81,0
134566984,64,4
134585704,16,9
134604420,49,1
134623132,100,1
134642908,36,9
134661616,0,4
134679308,196,0
134699068,441,4
134718828,144,16
134739620,16,9
134758328,4,0
134776024,4,1
134793708,4,1
134811380,64,1
134830108,0,0
134847796,64,0
134866504,9,1
134884180,36,1
134902896,49,0
134921620,25,4
134940340,16,4
134959044,1,0
134976740,121,0
134996504,121,1
135016264,121,9
135036028,225,0
135055788,196,16
135076584,256,0
135096340,400,16
135117140,25,16
135136904,121,16
135157688,144,0
135177460,0,4
135195136,25,9
135213860,9,25
135232588,25,16
135252356,16,1
135271064,1,0
135288732,64,0
135307460,0,0
135325148,225,9
135344904,256,4
135364660,1,36
135383376,9,4
135401048,4,0
135418748,0,1
135436424,49,0
135455140,16,0
135473856,16,9
135492564,36,1
135511300,25,0
135530024,81,0
135548740,0,4
135566428,0,9
135584104,0,0
135601792,0,1
135619468,0,1
135637152,1,0
135654820,49,0
135673548,9,1
135691212,4,4
135708916,25,1
135727620,4,1
135745300,9,0
135762988,0,0
135780672,1,0
135798340,81,0
135817072,196,1
135836828,144,4
135856580,4,16
135875288,4,1
135892972,25,1
135911708,36,1
135930428,4,4
135948100,9,0
135965776,16,0
135984500,16,0
136003208,49,4
136021936,121,4
136041704,64,9
136060416,0,9
136078100,9,1
136095776,64,0
136114508,144,0
136134252,16,9
136152972,1,16
136171704,4,0
136189376,16,0
136208092,121,0
136227868,529,4
136247628,121,16
136268420,256,16
136289204,289,0
136308988,36,4
136327712,25,0
136346416,0,4
136364108,16,1
136382828,9,4
136400500,100,1
136420264,1,0
136437944,81,1
136456664,4,4
136474336,1,9
136492008,4,1
136509704,9,1
136527388,4,0
136545060,49,0
136563780,64,0
136582500,4,1
136600180,4,1
136617856,64,0
136636588,25,4
136655300,36,16
136675056,25,4
136693780,0,4
136711468,25,1
136730180,9,0
136747860,49,9
136766576,64,1
136785308,25,4
136804016,9,0
136821684,49,0
136840420,16,9
136859136,196,4
136878900,169,4
136898660,9,25
136917388,16,1
136936100,4,9
136953772,49,25
136973548,36,1
136992256,0,0
137009940,25,4
137028660,529,0
137048424,256,16
137069208,16,9
137087924,0,0
137105624,0,1
137123304,1,0
137140984,4,1
137158652,49,0
137177388,25,1
137196100,4,0
137213784,36,0
137232500,169,0
137252268,49,4
137270968,0,9
137288648,1,0
137306340,36,0
137325056,169,0
137344808,144,1
137364584,64,1
137383300,1,16
137402020,4,4
137419696,1,0
137437392,81,0
137456100,81,4
137474816,9,4
137492508,4,0
137510188,1,1
137527848,9,4
137545544,36,4
137564256,16,0
137582980,4,0
137600660,0,1
137618332,4,0
137636024,0,1
137653700,4,1
137671376,0,0
137689044,1,0
137706740,81,0
137725468,25,9
137744180,0,1
137761864,49,0
137780588,144,0
137800340,0,1
137818016,1,4
137835708,1,0
137853380,36,4
137872096,0,0
137889760,1,9
137907460,81,0
137926188,196,1
137945944,4,9
137963636,1,9
137981312,1,0
137998980,16,0
138017692,81,1
138036432,16,4
138055140,36,36
138074892,49,0
138093632,1,4
138111300,100,0
138131060,36,4
138149780,16,1
138168500,81,0
138187220,49,1
138205928,64,1
138224668,49,0
138243384,0,1
138261052,100,0
138280812,289,0
138300588,100,1
138320340,4,4
138338008,0,1
138355684,4,0
138373388,9,0
138391064,64,0
138409780,4,16
138428508,9,16
138447220,9,0
138464900,9,1
138482580,49,1
138501300,36,0
138520012,81,4
138538740,16,9
138557468,4,4
138575136,16,0
138593852,25,0
138612576,16,0
138631296,9,0
138648980,0,0
138666652,36,0
138685372,25,1
138704096,4,4
138721768,16,0
138740496,16,4
138759228,9,1
138776904,1,0
138794580,4,1
138812260,4,0
138829940,4,9
138847620,0,9
138865288,64,0
138884016,400,4
138903788,256,16
138924580,0,16
138943296,0,9
138960980,4,0
138978668,16,0
138997368,64,0
139016092,36,16
139035864,64,9
139054580,144,1
139074344,4,0
139092028,144,1
139111792,169,4
139131540,36,16
139151292,16,16
139171056,25,9
139189792,1,9
139207460,1,0
139225144,36,0
139243872,196,1
139263628,25,0
139282332,16,36
139302108,25,25
139321860,16,0
139340592,9,9
139358268,25,4
139376976,121,1
139396732,64,0
139415456,1,1
139433152,1,0
139450824,0,0
139468500,4,0
139486184,121,0
139505944,121,16
139526740,25,49
139546500,169,16
139567296,64,0
139586016,36,1
139604740,4,1
139622436,4,4
139640104,4,100
139659856,25,49
139679620,64,4
139698348,36,1
139717060,25,1
139735776,16,1
139754496,36,9
139773224,49,0
139791940,36,1
139810660,16,0
139829380,49,0
139848096,361,0
139867860,324,4
139887612,49,9
139906348,1,9
139924020,1,4
139941696,49,1
139960412,64,25
139980188,169,81
140000980,144,36
140021788,100,25
140042580,169,25
140063380,36,49
140083132,1,36
140101868,64,1
140120588,16,0
140139296,289,9
140159056,25,0
140177776,9,4
140195464,4,4
140213148,1,4
140230820,4,4
140248504,4,1
140266168,16,4
140284884,121,4
140304668,81,16
140324428,25,1
140343140,49,1
140361860,64,25
140381620,121,16
140402416,9,1
140420084,1,0
140437780,9,0
140455460,36,0
140474172,4,0
140491860,16,0
140510588,16,1
140529300,36,9
140548004,121,0
140567792,1,4
140585460,36,0
140604176,9,0
140621860,1,0
140639536,0,0
140657216,9,4
140674900,25,49
140694668,1,25
140713372,0,0
140731060,9,0
140748740,9,4
140766420,9,25
140785132,1,9
140802816,4,0
140820508,1,0
140838188,4,1
140855856,49,0
140874568,36,0
140893312,36,4
140912024,289,4
140931780,36,16
140951536,36,0
140970268,9,64
140988980,1,49
141007692,9,0
141025384,0,9
141043064,25,0
141061772,16,0
141080496,16,1
141099220,1,0
141116892,1,1
141134588,0,1
141152252,9,4
141169940,1,0
141187620,9,0
141205296,0,4
141222988,9,4
141240664,1,4
141258328,169,0
141278096,169,9
141297852,16,16
141317616,1,4
141335300,16,0
141354028,16,1
141372744,49,1
141391460,1,1
141409132,25,0
141427860,4,16
141446588,196,9
141466348,225,0
141486100,9,16
141504832,144,4
141524580,81,1
141543300,9,0
141560984,64,1
141579700,4,0
141597372,49,0
141616084,16,0
141634832,1,0
141652504,9,0
141670176,1,0
141687856,0,0
141705540,1,0
141723224,1,4
141740900,64,0
141759616,49,0
141778340,4,4
141796016,144,0
141815764,324,16
141836584,169,36
141857376,81,25
141877136,49,9
141895864,4,0
141913540,4,0
141931220,1,0
141948892,9,49
141967628,16,49
141987380,0,16
142006112,4,4
142023788,0,0
142041456,9,0
142059132,4,4
142076812,0,0
142094512,9,25
142113220,0,64
142131940,1,81
142150648,4,144
142170432,1,81
142189144,16,25
142208892,225,25
142229700,169,4
142249456,16,144
142270256,4,64
142288976,36,36
142308748,16,1
142327460,36,144
142348260,121,1225
142371136,196,2025
142394016,121,144
142415852,36,1
142434572,1,1369
142455368,225,3364
142478256,144,841
142500100,36,81
142519856,25,25
142539608,0,1521
142560432,1,1296
142581216,49,100
142602020,9,324
142621784,0,16
142640496,0,25
142659228,1,144
142678972,25,196
142699788,4,25
142718504,49,36
142738256,0,1
142755948,9,361
142775704,16,49
142795452,100,16
142816272,1,36
142834988,4,64
142853704,0,36
142872416,4,9
142890108,4,529
142909864,16,36
142929632,1,1
142947296,1,196
142967068,49,81
142986820,16,49
143006572,100,25
143027380,1,25
143046096,1,169
143065860,0,121
143085620,9,36
143104344,0,0
143122024,9,0
143139708,49,484
143160504,121,100
143182340,1,121
143202092,36,49
143221864,16,64
143241624,16,225
143262408,0,1681
143283228,25,484
143304024,4,100
143323772,4,289
143343528,0,2500
143364348,81,961
143385136,16,25
143404900,1,144
143424660,25,0
143443380,121,9
143463140,9,16
143481864,1,144
143501624,25,1369
143523448,81,1024
143545288,16,676
143566104,1,529
143585860,4,324
143605612,0,361
143625380,16,81
143645140,36,25
143664904,1,9
143682592,1,49
143701308,9,36
143720016,1,196
143739776,25,729
143760580,16,1
143779292,16,36
143799060,0,49
143817784,9,1
143835456,16,36
143855220,36,16
143874972,1,0
143892668,1,25
143911380,0,16
143930096,16,64
143949860,1,1
143967544,16,16
143987288,0,121
144007060,1,0
144024736,16,196
144045540,1,64
144064260,0,49
144082984,0,121
144102752,1,16
144121456,9,289
144141212,49,961
144162024,49,729
144182828,16,400
144203620,49,81
144223380,49,400
144244172,36,1521
144266032,9,1024
144286824,16,361
144307624,0,0
144325300,25,36
144345060,49,16
144364828,81,100
144385620,16,100
144406420,1,121
144426192,25,4
144444892,1,36
144463616,0,9
144481300,9,441
144501064,36,1024
144522892,144,49
144543692,100,676
144565544,0,676
144585304,81,1156
144607136,144,361
144628980,9,1
144646652,9,25
144665376,0,64
144684096,0,0
144701788,1,81
144720500,16,400
144741292,25,400
144762116,1,4
144779784,4,576
144799532,0,289
144819304,1,121
144839060,0,225
144858820,0,144
144878576,49,4
144897296,81,361
144918088,25,169
144938904,4,1
144956596,4,16
144975312,1,100
144995056,1,36
145013784,36,49
145033548,1,0
145051224,1,9
145068896,64,4
145087620,9,49
145106344,4,81
145125060,1,784
145144812,9,784
145164592,1,324
145184332,4,1156
145205132,49,2209
145226984,25,400
145247796,9,0
145265460,4,25
145284184,1,1156
145304972,16,3844
145326808,36,196
145347624,4,121
145367388,9,144
145387140,0,4
145404808,0,81
145423536,4,4
145441220,4,0
145458888,0,0
145476568,0,1
145494268,0,36
145512984,0,256
145532740,25,225
145553548,36,169
145574340,1,49
145593060,1,4
145610736,0,16
145629464,1,144
145649216,4,100
145668980,25,400
145689780,9,676
145709536,1,676
145729300,81,729
145750104,144,676
145771944,25,1764
145793772,49,1156
145815636,36,16
145835380,1,576
145855140,0,256
145874888,0,9
145892584,1,1
145910260,9,4
145927936,0,36
145946660,1,441
145966416,4,64
145985132,9,25
146003856,16,121
146024664,1,49
146043380,1,16
146062092,36,324
146082896,196,1089
146105772,256,900
146127612,121,400
146149464,81,1
146168184,4,961
146187936,16,1521
146209760,9,625
146229556,1,16
146248252,0,324
146268012,9,441
146287780,25,121
146308584,0,25
146327296,16,0
146346028,0,9
146363696,0,4
146381372,0,49
146400096,9,121
146419868,0,100
146439616,0,49
146458332,9,25
146477044,9,400
146496828,49,0
146515544,9,225
146535292,4,841
146555068,0,1600
146575856,25,169
146596668,0,0
146614348,1,81
146633068,9,289
146652812,81,25
146672564,9,0
146690268,0,0
146707940,0,4
146725620,4,9
146743288,4,1
146760984,4,441
146780736,16,961
146801536,16,49
146821300,0,121
146841064,4,144
146860808,1,484
146880576,16,9
146899292,81,6241
146921136,289,2209
146944028,0,0
146961712,1,49
146980416,25,0
146999144,4,144
147018920,1,1
147036588,25,0
147055300,1,576
147075048,25,1225
147096900,100,100
147118732,4,0
147136420,1,1
147154108,0,196
147173852,4,324
147193624,1,49
147212344,0,4
147230028,0,25
147248744,25,256
147269532,121,289
147291380,81,25
147311144,36,49
147330904,1,81
147349628,1,169
147369392,1,0
147387064,1,0
147404732,4,25
147423464,16,196
147444260,49,400
147465068,16,1
147483788,9,484
147503536,36,196
147524340,9,25
147543064,9,1
147560740,36,16
147580504,25,81
147600260,0,81
147618980,9,25
147637696,16,4
147656420,16,81
147676188,36,36
147695944,1,36
147714660,36,169
147735456,9,441
147755232,9,484
147774976,16,36
147794728,1,36
147813464,0,36
147832180,1,36
147850900,1,324
147870652,49,225
147891472,0,16
147910184,16,64
147929936,1,9
147947620,36,81
147967380,36,324
147988180,1,324
148007924,9,144
148027696,25,169
148048492,0,100
148068252,1,1
148085940,0,4
148103612,0,64
148122340,9,1
148140020,9,225
148159780,4,64
148178488,0,225
148198252,9,144
148218028,4,4
148235700,4,49
148254412,4,25
148273124,0,9
148290824,0,9
148308504,0,1
148326180,4,1
148343860,1,16
148362580,0,81
148381300,36,36
148401044,36,36
148420832,4,225
148440584,4,256
148460340,25,225
148481140,25,49
148500900,0,0
148518580,1,64
148537284,1,196
148557056,0,16
148575784,0,9
148593460,4,9
148611148,0,1
148628820,9,9
148646496,1,49
148665220,1,144
148684976,4,25
148703688,0,1
148721376,0,1
148739052,0,121
148758828,1,81
148777544,1,1
148795212,9,16
148813940,0,4
148831628,4,9
148849300,1,0
148866976,9,121
148886748,9,4
148904412,1,144
148924168,9,36
148942896,0,1
148960588,0,64
148979300,4,144
148999056,25,16
149018824,0,64
149037536,1,64
149056252,4,16
149074984,0,16
149093700,1,0
149111372,4,1
149129052,1,25
149147788,0,1
149165456,0,9
149183136,0,1
149200804,0,0
149218512,1,49
149237220,0,121
149256980,1,169
149276744,9,144
149296496,4,9
149314172,1,0
149331864,9,196
149351616,25,400
149372420,4,9
149390100,9,36
149408824,1,9
149426508,1,9
149444180,4,81
149462896,9,4
149480576,0,16
149499312,1,16
149518016,9,1
149535696,0,16
