Timestamp (micros),Sensor1 (mV),Sensor2 (mV),Label
53856,2916,9216,6
56092,1156,441,6
58268,4,49,6
60276,1024,484,6
78360,16,324,6
94992,1369,1,6
111640,529,121,6
130356,36,361,6
148028,361,49,6
165712,16,225,6
183400,361,9,6
200028,2704,225,6
219776,12100,1,6
238504,2916,81,6
257232,11449,900,6
278028,29929,49,6
297788,256,2209,6
317552,30276,121,6
338336,9216,900,6
358108,289,324,6
376808,7225,16,6
395524,0,49,6
411144,0,1681,6
428816,4624,5329,6
449620,8464,100,6
469372,13924,4,6
488096,9216,2401,6
508892,6241,484,6
528676,17161,64,6
548424,625,36,6
566096,1600,1,6
583780,5184,16,6
602496,19321,36,6
622260,0,400,6
638884,27556,1089,6
660740,12544,1024,6
682584,8649,2500,6
703396,576,1600,6
723160,729,144,6
741860,16129,1,6
760568,0,64,6
776168,1089,2025,6
796984,3844,1600,6
817772,20164,256,6
838560,0,169,6
855232,11449,5929,6
877076,49,900,6
894740,6084,169,6
914496,3844,64,6
933232,1024,400,6
952952,14884,1024,6
974816,27889,676,6
995624,225,1369,6
1015372,15625,9,6
1035132,6400,484,6
1055932,64,169,6
1074664,1764,16,6
1094436,5625,25,6
1114192,3481,16,6
1133948,0,9,6
1149532,26896,1296,6
1172428,625,2809,6
1193248,324,529,6
1212992,1444,1,6
1231716,441,100,6
1251484,36,4,6
1268104,2704,361,6
1288896,3969,225,6
1309692,9604,196,6
1330516,7396,484,6
1351296,21904,625,6
1373124,21904,16,6
1393952,17424,1936,6
1416824,21489,1,6
1436580,18564,3025,6
1459480,8836,2401,6
1481284,29241,2401,6
1504188,23865,36,6
1524984,13988,5041,6
1547852,4225,6084,6
1569684,5329,1225,6
1591556,256,0,6
1609236,36,4,6
1625860,1369,0,6
1644580,9801,484,6
1665404,12100,144,6
1687228,8281,1444,6
1709056,49,169,6
1727784,361,144,6
1747540,49,169,6
1766272,1936,16,6
1786028,7225,0,6
1804744,784,484,6
1824496,32041,256,6
1846344,6561,1369,6
1868188,2916,1089,6
1890028,1681,225,6
1910812,8464,144,6
1931624,13456,25,6
1952424,2025,1936,6
1974268,169,1089,6
1995088,16,36,6
2012736,1521,100,6
2033544,2401,49,6
2053308,1849,676,6
2074112,400,169,6
2093868,1681,36,6
2113628,6724,529,6
2134428,3136,1296,6
2156264,2401,16,6
2176024,7744,1,6
2194740,29241,324,6
2216588,14400,289,6
2238404,1024,484,6
2259212,4900,121,6
2280016,21025,361,6
2301852,14161,676,6
2323720,49,841,6
2342432,81,256,6
2361164,9216,1,6
2379864,0,121,6
2397552,16384,1024,6
2420428,5041,1156,6
2442292,49,121,6
2460988,17956,36,6
2481788,1936,289,6
2502576,324,1089,6
2523376,6400,16,6
2543140,2809,196,6
2563952,121,1521,6
2584744,1296,25,6
2604496,6561,256,6
2625304,1089,0,6
2644040,1936,121,6
2664844,22801,4,6
2684580,23104,1296,6
2707448,961,2500,6
2728260,576,169,6
2748024,3136,100,6
2768808,1024,529,6
2789632,21904,4,6
2809372,15376,2401,6
2832256,1369,900,6
2853068,3136,0,6
2871768,12996,9,6
2891544,21609,81,6
2912352,64,784,6
2931072,400,225,6
2950836,1089,25,6
2970576,2601,0,6
2989320,81,64,6
3006984,10404,16,6
3027784,3364,49,6
3047560,324,225,6
3067308,196,4,6
3084980,2304,0,6
3103708,625,324,6
3123488,25,144,6
3142196,64,4,6
3158820,100,121,6
3178592,36,16,6
3196268,2916,225,6
3217056,7744,1,6
3235772,7744,784,6
3256584,6241,169,6
3277380,3969,100,6
3298180,1849,576,6
3319004,100,169,6
3338744,225,0,6
3356432,196,144,6
3376184,5329,196,6
3397016,400,81,6
3415712,196,100,6
3435456,2304,36,6
3455228,3969,144,6
3476036,225,400,6
3495792,4900,16,6
3515560,21609,4,6
3535316,2116,1600,6
3557136,625,484,6
3576904,2601,361,6
3597696,8281,36,6
3617464,169,784,6
3637216,3136,49,6
3656988,81,144,6
3675704,1444,225,6
3696512,6084,9,6
3715244,2304,49,6
3734988,5929,289,6
3755792,15876,100,6
3777628,49,100,6
3796352,3844,729,6
3817136,400,0,6
3834816,1225,144,6
3855624,400,36,6
3874336,5041,16,6
3894116,25921,225,6
3915936,0,676,6
3933612,5476,2500,6
3955468,12100,1521,6
3978340,1089,100,6
3999136,6400,484,6
4019944,9604,324,6
4040768,289,784,6
4060520,15876,144,6
4082344,25,100,6
4101072,2304,196,6
4121880,0,256,6
4139564,25,64,6
4157212,1444,16,6
4176980,12769,0,6
4196760,20736,625,6
4218592,1936,1369,6
4240428,1,361,6
4258120,1,25,6
4274752,2500,36,6
4294508,2809,81,6
4314292,1764,676,6
4335076,961,36,6
4353796,400,144,6
4373556,289,676,6
4393316,64,100,6
4412036,289,0,6
4429728,25,4,6
4446360,729,25,6
4465076,841,64,6
4483788,400,36,6
4502504,625,100,6
4522268,5776,9,6
4540984,3025,196,6
4561796,289,144,6
4581560,16,25,6
4599244,289,81,6
4617944,2304,1,6
4636656,3136,144,6
4657468,3600,81,6
4677224,256,121,6
4696980,5776,0,6
4715712,9216,64,6
4735476,4624,625,6
4756272,961,324,6
4776040,36,144,6
4794752,576,121,6
4814508,361,16,6
4833220,1,25,6
4849880,1,1,6
4865476,4,0,6
4881076,576,9,6
4898732,6084,36,6
4918508,7225,289,6
4939292,225,529,6
4959064,3136,121,6
4979888,676,81,6
4998588,25,64,6
5016276,576,9,6
5033944,289,4,6
5051632,441,81,6
5070360,1764,16,6
5090104,841,81,6
5108840,529,36,6
5127556,289,121,6
5147296,361,169,6
5167056,4,36,6
5183700,1156,9,6
5202420,15376,4,6
5222188,0,64,6
5238828,21609,1936,6
5261708,10816,2116,6
5284584,225,324,6
5304344,121,196,6
5324112,1089,36,6
5343860,100,144,6
5363620,0,16,6
5380252,6825,1681,6
5402092,17161,5776,6
5424984,49,1764,6
5444728,5625,16,6
5464508,9216,0,6
5483220,81,441,6
5501924,1225,576,6
5522748,13689,64,6
5543536,0,196,6
5561216,9604,841,6
5582020,11025,1681,6
5604908,0,289,6
5622568,0,1936,6
5641300,11449,5041,6
5664176,2601,1089,6
5686020,21025,16,6
5706832,11025,9,6
5726584,8464,576,6
5747380,29929,676,6
5769212,0,729,6
5786912,30976,1024,6
5809772,23104,784,6
5831600,1444,1156,6
5853468,12544,441,6
5875300,1521,576,6
5896096,1764,121,6
5916912,25,484,6
5935632,2809,9,6
5954348,9,9,6
5969948,169,841,6
5989708,13225,16,6
6010496,16900,81,6
6031284,3969,2809,6
6053156,289,484,6
6072908,4761,225,6
6093704,6400,16,6
6113468,2500,144,6
6134260,81,841,6
6152988,12544,9,6
6172756,3969,900,6
6193540,10609,169,6
6215380,11664,169,6
6237248,1764,676,6
6258040,729,100,6
6277792,729,9,6
6295472,529,4,6
6313164,169,36,6
6331884,1,1,6
6347464,1521,4,6
6366180,4356,169,6
6386992,169,225,6
6406740,13924,49,6
6427532,0,121,6
6445224,13225,1089,6
6468108,10201,1225,6
6490984,0,64,6
6507620,22500,3249,6
6530500,1024,2500,6
6552352,676,169,6
6572096,32761,25,6
6592904,20164,1024,6
6615772,24964,1089,6
6638648,7744,484,6
6659460,8836,1936,6
6681300,25,4,6
6697932,9409,1296,6
6719776,12100,784,6
6741620,3969,1024,6
6763456,14161,49,6
6784272,23104,1,6
6804040,1089,729,6
6824824,100,1369,6
6845628,2704,0,6
6864348,3249,49,6
6884096,3481,529,6
6904916,11881,49,6
6925712,4900,961,6
6946504,784,225,6
6966260,100,0,6
6983964,2916,121,6
7004740,5625,16,6
7024504,64,36,6
7042164,21025,225,6
7064024,11236,289,6
7085860,0,2116,6
7104584,0,196,6
7122260,169,4624,6
7143064,10609,25,6
7163860,4225,961,6
7184672,64,16,6
7202348,4,144,6
7220012,3721,361,6
7240828,1,64,6
7257472,16129,36,6
7278260,15876,256,6
7300104,25,2025,6
7319840,13924,576,6
7341716,23268,529,6
7363540,31329,1849,6
7386428,7921,2025,6
7408256,5625,324,6
7429052,529,289,6
7448828,7921,4,6
7467548,1156,100,6
7488340,2916,64,6
7508092,4225,81,6
7527872,10404,289,6
7549712,5476,441,6
7570500,3721,16,6
7590268,196,2304,6
7611048,29241,64,6
7631840,400,9,6
7649532,2916,1936,6
7671384,0,441,6
7689052,15120,16,6
7709856,13689,9025,6
7732732,3721,1296,6
7754576,20164,529,6
7776424,2304,25,6
7796184,3481,400,6
7816980,5184,441,6
7837788,2809,676,6
7858600,25,576,6
7877300,2025,169,6
7898092,4096,4,6
7916828,1225,225,6
7937640,1,64,6
7954280,25,100,6
7973000,196,289,6
7992748,324,81,6
8011456,324,49,6
8030164,10000,1,6
8049932,0,324,6
8067620,19044,1444,6
8090492,1225,1849,6
8112344,6400,441,6
8133148,2809,121,6
8153944,2704,484,6
8174756,1089,16,6
8194512,441,225,6
8214264,3844,49,6
8234024,7569,16,6
8253780,3249,729,6
8274584,361,49,6
8293300,25,9,6
8309944,8100,16,6
8329700,19321,225,6
8351540,324,576,6
8371308,10816,441,6
8393144,784,121,6
8412908,4624,729,6
8433708,10000,4,6
8453468,27889,81,6
8474256,28900,400,6
8496092,81,3721,6
8515860,4096,1156,6
8537708,4,324,6
8555388,25,64,6
8573072,7921,961,6
8593864,29584,9,6
8613628,9025,1156,6
8635468,6084,3364,6
8657304,14161,196,6
8679144,8281,841,6
8699952,9604,2809,6
8721788,7396,289,6
8742572,9216,144,6
8763372,10000,289,6
8785224,625,900,6
8804964,6561,625,6
8825772,11449,0,6
8845544,441,2500,6
8866344,2401,1024,6
8888192,289,900,6
8907948,961,64,6
8926660,225,121,6
8946424,11881,144,6
8968268,9,324,6
8985952,22201,1,6
9005704,15625,289,6
9027540,3249,484,6
9048360,9,289,6
9066020,361,324,6
9085764,8100,36,6
9105548,0,81,6
9122192,8281,784,6
9142976,9,1521,6
9161700,11236,9,6
9181468,0,729,6
9199144,484,1444,6
9219948,144,1089,6
9240752,12996,64,6
9261548,4761,900,6
9282344,2916,961,6
9303148,5776,9,6
9321872,22500,289,6
9343696,0,1521,6
9362424,15876,961,6
9384280,4,2209,6
9402984,400,729,6
9422740,1024,196,6
9443544,2209,0,6
9462272,3025,0,6
9480988,400,484,6
9500732,12996,36,6
9521552,14884,64,6
9542360,1,729,6
9560012,15876,400,6
9581856,0,121,6
9599540,12769,2209,6
9622412,676,729,6
9642192,3969,4,6
9660896,22201,1,6
9680668,14641,256,6
9702504,7921,1444,6
9724328,24025,25,6
9745132,5184,1296,6
9766992,10201,225,6
9788828,0,0,6
9804420,29241,676,6
9826244,24649,2209,6
9849156,14641,1296,6
9872008,6241,676,6
9892820,27889,361,6
9914660,28224,289,6
9936496,18769,1369,6
9959364,24964,1089,6
9982276,8649,784,6
10003064,6084,1521,6
10025952,6724,324,6
10047804,361,361,6
10068580,0,900,3
10087316,49,144,3
10107080,1,49,3
10124760,36,100,3
10144520,4,36,3
10162204,49,100,3
10181964,25,4,3
10199640,4,4,3
10216272,121,4,3
10235004,841,121,3
10255788,529,81,3
10275556,4,9,3
10292188,169,9,3
10310912,676,1,3
10329644,441,0,3
10348356,9,4,3
10365004,16,100,3
10384764,36,100,3
10404512,100,4,3
10423236,16,4,3
10440916,49,64,3
10459640,25,121,3
10479380,900,256,3
10500208,1444,25,3
10520988,1681,121,3
10542832,2601,36,3
10563632,2704,36,3
10584448,676,169,3
10605232,64,0,3
10622896,25,100,3
10642680,25,0,3
10660356,121,4,3
10679072,64,4,3
10696756,4,1,3
10713400,16,169,3
10733156,49,4,3
10750832,64,289,3
10770592,169,49,3
10790360,400,16,3
10810104,784,1156,3
10831956,1,2500,3
10851724,64,1,3
10869396,81,1156,3
10890188,4,324,3
10908924,9,169,3
10927644,25,16,3
10946348,196,324,3
10967152,100,16,3
10986908,0,1024,3
11006672,4,484,3
11025388,4,361,3
11044124,0,324,3
11062840,16,9,3
11080516,81,121,3
11100280,81,100,3
11120036,1,25,3
11137716,0,100,3
11156428,9,400,3
11175168,16,81,3
11193888,4,0,3
11210516,64,4,3
11228196,16,1,3
11245884,4,16,3
11263556,9,16,3
11281232,9,400,3
11299956,0,169,3
11318684,121,9,3
11337392,289,0,3
11356100,121,64,3
11375880,1,64,3
11393560,9,1,3
11410196,25,64,3
11428928,1,16,3
11446604,16,9,3
11464268,16,49,3
11483000,1,0,3
11499636,4,16,3
11517324,4,1,3
11533952,25,4,3
11551636,49,9,3
11569324,9,4,3
11585960,0,0,3
11602596,1,4,3
11619228,9,4,3
11635872,16,676,3
11655628,324,2500,3
11677464,256,289,3
11698284,1,9,3
11714912,25,16,3
11733628,64,81,3
11752344,49,25,3
11771076,36,9,3
11788760,1,4,3
11805404,9,1,3
11822028,4,16,3
11839724,16,1,3
11857380,0,16,3
11875076,25,9,3
11892760,16,4,3
11910436,9,25,3
11928116,0,1,3
11944760,16,256,3
11964524,9,64,3
11982196,144,9,3
12000904,49,49,3
12019620,4,196,3
12038360,0,169,3
12057064,36,81,3
12075792,49,1,3
12093476,4,9,3
12110120,4,64,3
12127800,1,81,3
12145468,25,9,3
12163164,9,1,3
12179804,1,0,3
12196440,9,81,3
12214108,9,81,3
12231804,1,0,3
12248440,64,81,3
12267148,144,324,3
12287948,1,121,3
12306676,1,81,3
12324348,0,81,3
12342036,144,4,3
12360760,196,1,3
12379484,196,0,3
12398188,324,64,3
12417944,64,81,3
12436688,9,1,3
12453324,81,361,3
12473072,100,484,3
12493876,4,16,3
12511560,0,9,3
12528200,9,16,3
12545872,64,64,3
12564600,81,4,3
12582288,49,49,3
12600996,16,100,3
12620740,25,361,3
12640516,49,2500,3
12661308,100,900,3
12682116,9,0,3
12698764,49,49,3
12717484,81,169,3
12737232,49,25,3
12755936,4,0,3
12772604,0,16,3
12790272,0,16,3
12807948,1,400,3
12826676,4,196,3
12845396,100,1,3
12864120,196,64,3
12883860,81,81,3
12902592,4,4,3
12919232,49,1,3
12936912,144,25,3
12956664,49,16,3
12975396,4,16,3
12993064,0,121,3
13011796,36,16,3
13030512,121,25,3
13050268,144,36,3
13070036,121,36,3
13089784,1,144,3
13108528,25,16,3
13127240,25,64,3
13145956,36,4,3
13163644,16,1,3
13181324,9,0,3
13197968,1,9,3
13214600,9,4,3
13231236,25,1225,3
13252024,121,6724,3
13273864,100,2601,3
13295716,25,100,3
13315476,16,25,3
13334196,9,64,3
13351872,1,9,3
13368516,36,1,3
13386192,36,25,3
13404908,25,169,3
13424672,49,441,3
13444444,1,169,3
13463156,25,36,3
13481868,81,100,3
13501632,36,25,3
13520356,1,0,3
13536984,16,961,3
13556744,36,1024,3
13577556,0,9,3
13594192,9,4,3
13610836,0,9,3
13627488,0,36,3
13645168,0,1,3
13661792,4,81,3
13679468,0,16,3
13697160,4,9,3
13713800,16,36,3
13732520,49,4,3
13750192,25,1,3
13767876,25,0,3
13785552,36,1,3
13803236,1,0,3
13819864,49,25,3
13838600,169,49,3
13858356,49,625,3
13878112,1,256,3
13896844,4,0,3
13913476,4,0,3
13930112,16,9,3
13947788,25,0,3
13965476,0,9,3
13982120,4,16,3
13999800,1,9,3
14016424,1,0,3
14033080,16,9,3
14050756,9,49,3
14068436,1,16,3
14086116,0,1,3
14102760,4,4,3
14119384,0,16,3
14137072,0,9,3
14153708,16,9,3
14171400,36,100,3
14191160,4,81,3
14208832,36,0,3
14226512,25,1,3
14244196,4,25,3
14261864,16,16,3
14280608,4,1,3
14297244,0,0,3
14313884,16,1,3
14331552,25,100,3
14351308,36,225,3
14371084,9,49,3
14388772,25,25,3
14407468,36,256,3
14427240,1,169,3
14445956,4,16,3
14463636,9,1,3
14480272,81,4,3
14497972,64,1,3
14515636,4,4,3
14532280,1,4,3
14548908,16,1,3
14566600,36,1,3
14584272,0,0,3
14600920,16,9,3
14618592,0,81,3
14636276,9,100,3
14655000,36,169,3
14674756,4,256,3
14693480,121,1,3
14712204,4,484,3
14730912,64,1156,3
14751696,64,784,3
14771476,49,36,3
14790208,4,4,3
14806836,4,324,3
14825564,0,324,3
14844272,100,0,3
14862992,16,4,3
14880668,49,225,3
14900440,4,16,3
14918120,4,121,3
14936828,9,169,3
14955540,0,729,3
14974272,100,784,3
14995072,121,0,3
15013788,0,49,3
15031472,36,0,3
15049156,4,100,3
15067864,16,361,3
15087632,81,2304,3
15108436,0,256,3
15127148,64,49,3
15145884,4,49,3
15163556,1,361,3
15182260,16,1849,3
15203068,25,784,3
15222828,25,361,3
15242608,169,576,3
15263392,64,64,3
15282104,1,169,3
15300836,36,0,3
15318516,100,16,3
15338268,16,961,3
15358036,16,2704,3
15378832,144,1369,3
15400672,81,225,3
15420444,4,9,3
15437072,9,0,3
15453728,25,16,3
15472436,49,1,3
15490116,0,100,3
15508836,0,121,3
15527548,49,36,3
15546264,25,0,3
15563952,25,25,3
15582676,9,81,3
15600364,16,25,3
15619064,25,49,3
15637804,16,4,3
15655476,0,1,3
15672112,1,4,3
15688756,1,36,3
15706436,36,9,3
15724116,36,25,3
15742824,9,9,3
15759480,16,169,3
15779244,4,81,3
15796908,1,49,3
15814588,25,16,3
15833324,9,0,3
15849952,16,4,3
15867632,0,1,3
15884268,16,1,3
15901952,16,0,3
15919644,25,25,3
15938352,1,49,3
15956036,1,169,3
15974752,4,9,3
15991392,16,100,3
16011152,64,256,3
16030916,0,100,3
16049632,49,9,3
16067316,9,9,3
16083948,0,16,3
16101640,0,4,3
16118272,0,16,3
16135952,36,169,3
16155716,100,484,3
16176524,81,225,3
16196276,144,9,3
16214996,81,225,3
16234756,0,196,3
16253476,4,1,3
16270112,9,81,3
16287800,0,4,3
16304444,9,9,3
16321072,49,16,3
16339796,16,9,3
16357476,4,36,3
16375164,25,4,3
16392840,49,81,3
16411548,49,144,3
16431316,25,49,3
16450036,0,25,3
16467716,0,441,3
16486448,16,729,3
16506196,25,25,3
16524924,16,9,3
16542604,64,100,3
16562352,100,289,3
16583156,16,36,3
16601880,64,64,3
16620592,196,100,3
16641404,49,9,3
16659084,0,4,3
16675716,4,36,3
16693412,0,16,3
16711084,64,25,3
16729796,64,16,3
16748504,25,64,3
16767236,36,289,3
16786992,1,289,3
16805724,4,49,3
16823404,4,121,3
16842124,4,16,3
16859784,9,64,3
16877468,1,49,3
16895152,16,36,3
16913876,0,0,3
16930516,9,4,3
16947144,25,9,3
16964836,25,64,3
16983544,4,49,3
17001236,1,25,3
17018936,4,1,3
17035560,0,16,3
17053232,25,0,3
17070916,81,4,3
17088608,25,49,3
17107320,16,81,3
17126040,36,1,3
17143708,1,100,3
17162432,36,16,3
17181156,16,1,3
17198832,0,9,3
17215472,0,1,3
17232120,4,25,3
17249792,4,64,3
17267480,1,196,3
17286196,0,100,3
17304924,1,25,3
17322588,4,324,3
17341308,100,900,3
17362112,169,324,3
17382916,49,1,3
17400596,0,16,3
17418280,36,9,3
17435960,36,36,3
17454680,1,81,3
17472352,36,0,3
17490036,0,49,3
17507720,4,81,3
17525388,64,49,3
17544112,4,16,3
17561804,1,1,3
17578436,16,0,3
17596120,9,1,3
17612740,0,9,3
17629400,25,1,3
17647076,4,0,3
17663704,0,64,3
17681396,1,196,3
17700116,4,36,3
17717804,64,9,3
17735472,64,1,3
17753160,4,100,3
17771872,9,256,3
17790596,9,9,3
17807236,1,16,3
17824924,0,1,3
17841564,0,9,3
17858192,0,25,3
17875864,4,64,3
17893564,121,196,3
17914348,100,64,3
17934116,0,4,3
17950760,4,4,3
17967392,49,4,3
17985072,169,9,3
18003784,49,25,3
18022516,1,196,3
18041244,1,1,3
18057876,4,81,3
18075552,0,25,3
18093240,64,400,3
18112992,100,49,3
18132752,4,25,3
18150444,0,4,3
18167088,144,9,3
18185796,441,49,3
18205556,4,49,3
18223244,64,36,3
18241960,36,9,3
18259648,4,1,3
18276268,1,25,3
18293968,16,49,3
18312664,4,121,3
18331384,4,49,3
18349084,1,25,3
18366764,16,64,3
18385476,4,0,3
18402108,36,16,3
18420840,36,36,3
18439556,9,441,3
18458276,9,144,3
18476992,1,0,3
18493644,1,36,3
18511308,0,49,3
18528988,0,1,3
18545628,16,1,3
18563316,81,100,3
18583084,144,169,3
18603876,64,25,3
18622608,1,16,3
18640276,81,36,3
18658992,49,0,3
18676676,0,4,3
18693324,0,1,3
18709960,0,25,3
18727640,4,169,3
18746352,16,289,3
18766120,16,64,3
18784836,0,1,3
18801476,4,9,3
18818112,0,9,3
18834756,4,121,3
18853476,36,121,3
18873236,25,16,3
18891960,9,25,3
18909628,16,16,3
18928356,0,9,3
18944988,25,4,3
18962684,25,4,3
18980356,4,9,3
18996992,0,1,3
19013632,0,49,3
19031316,9,36,3
19049004,49,4,3
19066672,81,25,3
19085404,9,1,3
19102028,25,0,3
19119716,121,9,3
19138436,81,1,3
19156124,0,9,3
19172764,16,36,3
19191472,1,49,3
19209152,49,9,3
19226848,4,16,3
19244528,4,1,3
19261152,0,25,3
19278828,0,4,3
19295476,64,49,3
19314208,16,16,3
19332912,4,49,3
19350608,1,0,3
19367240,64,0,3
19384916,121,4,3
19403632,1,36,3
19421328,9,4,3
19437964,36,25,3
19456672,81,100,3
19476416,100,25,3
19496208,25,1,3
19513884,1,9,3
19530516,4,1,3
19547164,9,1,3
19563796,9,0,3
19580444,1,9,3
19597072,9,169,3
19615796,4,225,3
19634524,25,0,3
19652192,36,49,3
19670912,64,16,3
19689640,81,9,3
19707316,4,4,3
19723956,1,1,3
19740592,36,1,3
19758276,49,0,3
19775952,0,36,3
19793636,1,1,3
19810272,4,9,3
19826920,4,9,3
19843560,9,25,3
19861228,25,169,3
19881000,9,1,3
19897640,0,1,3
19914276,1,0,3
19930908,0,0,3
19947556,0,16,3
19965236,4,4,3
19981872,1,0,3
19998516,81,9,3
20016192,36,16,3
20034916,0,25,3
20052596,4,25,3
20070280,1,1,1
20086912,1,1,1
20103564,1,9,1
20120196,4,25,1
20137872,9,0,1
20154516,49,36,1
20173232,25,49,1
20191952,9,49,1
20209628,36,0,1
20227320,0,1,1
20243964,100,16,1
20263716,144,9,1
20282436,64,9,1
20300116,4,49,1
20317796,1,0,1
20334424,4,81,1
20352124,36,361,1
20371884,0,625,1
20390584,49,121,1
20410344,16,64,1
20429076,16,121,1
20448832,49,49,1
20467564,16,36,1
20486272,169,1,1
20505000,100,9,1
20523716,16,25,1
20542428,0,16,1
20560116,16,0,1
20577800,36,64,1
20596508,0,256,1
20615232,16,81,1
20633956,16,1,1
20651636,16,25,1
20670356,1,9,1
20687000,1,9,1
20703640,16,144,1
20723392,16,64,1
20742108,9,36,1
20759804,1,169,1
20778512,64,121,1
20798268,121,4,1
20816996,4,144,1
20835724,16,64,1
20854424,25,0,1
20872108,9,0,1
20888760,0,49,1
20906432,1,25,1
20924108,16,81,1
20942828,49,289,1
20962604,49,36,1
20981312,9,1,1
20997952,0,9,1
21014600,1,100,1
21033316,1,25,1
21050996,4,1,1
21067632,9,9,1
21084272,25,1,1
21101964,1,1,1
21118588,1,9,1
21135244,4,1,1
21151880,9,4,1
21168516,4,49,1
21186196,0,64,1
21203868,1,36,1
21221552,0,9,1
21238196,4,64,1
21255864,36,100,1
21275624,25,16,1
21294360,1,0,1
21310996,1,0,1
21327624,0,4,1
21344284,1,1,1
21360924,4,1,1
21377560,36,16,1
21396276,49,9,1
21413956,36,49,1
21432676,16,144,1
21452432,0,1,1
21469076,4,16,1
21486764,36,1,1
21504436,225,9,1
21523156,64,1,1
21540824,1,0,1
21557472,0,9,1
21574116,4,16,1
21591800,1,1,1
21608432,1,0,1
21625076,1,9,1
21641716,0,25,1
21659396,0,0,1
21676028,0,16,1
21693712,0,49,1
21711400,0,16,1
21729080,1,25,1
21746768,4,256,1
21765484,9,196,1
21784188,4,0,1
21800828,0,81,1
21818520,36,36,1
21837236,100,0,1
21855964,16,9,1
21873628,0,225,1
21892356,0,324,1
21911088,9,169,1
21929800,49,49,1
21948512,9,49,1
21966204,0,9,1
21982840,0,1,1
21999476,0,4,1
22016108,0,9,1
22032748,0,0,1
22049380,0,0,1
22066036,0,1,1
22082676,0,0,1
22099316,0,9,1
22115948,0,64,1
22133632,1,81,1
22151328,16,81,1
22170036,49,16,1
22188748,36,36,1
22207468,25,121,1
22227248,1,16,1
22244928,1,4,1
22261564,9,4,1
22278204,1,64,1
22295884,36,9,1
22313556,16,9,1
22331236,1,0,1
22347876,49,16,1
22366596,25,4,1
22384272,16,1,1
22401952,25,0,1
22419652,1,196,1
22438352,25,576,1
22458108,4,225,1
22476848,64,0,1
22494528,4,36,1
22512200,0,4,1
22528832,9,16,1
22546512,1,0,1
22563156,1,0,1
22579792,1,121,1
22598508,16,289,1
22618280,1,25,1
22635956,9,0,1
22652604,4,4,1
22669240,4,9,1
22685888,1,4,1
22702512,1,4,1
22719160,1,0,1
22735788,36,1,1
22753484,4,4,1
22770116,0,4,1
22786756,1,16,1
22804432,1,25,1
22822112,25,25,1
22840832,1,1,1
22857472,4,64,1
22875160,4,100,1
22893876,0,169,1
22912600,49,64,1
22931308,144,0,1
22950036,49,4,1
22967724,1,1,1
22984356,1,4,1
23000992,0,4,1
23017640,0,1,1
23034272,0,4,1
23050908,9,4,1
23067552,16,100,1
23087312,1,196,1
23106044,1,4,1
23122664,25,121,1
23142444,25,1,1
23160128,1,81,1
23177792,0,49,1
23195468,1,4,1
23212120,9,25,1
23229804,64,25,1
23248520,121,9,1
23267232,16,144,1
23286996,25,64,1
23305704,0,4,1
23322348,4,1,1
23338980,0,0,1
23355640,49,1,1
23373316,49,9,1
23391004,16,36,1
23409724,0,25,1
23427400,0,25,1
23445080,1,9,1
23461716,9,1,1
23478364,1,9,1
23495004,9,0,1
23511632,4,25,1
23529316,4,25,1
23546996,9,0,1
23563636,49,9,1
23581308,121,4,1
23600028,4,4,1
23616676,0,16,1
23634344,0,25,1
23652024,0,16,1
23669712,9,9,1
23686364,49,64,1
23705072,25,81,1
23723796,4,25,1
23741492,4,4,1
23758132,1,9,1
23774760,0,9,1
23791392,49,1,1
23809076,49,4,1
23826756,0,0,1
23843392,0,25,1
23861076,1,81,1
23878756,25,625,1
23898516,121,1024,1
23920360,4,81,1
23938028,49,0,1
23955724,0,4,1
23972352,36,1,1
23990036,4,100,1
24008768,4,324,1
24027488,25,169,1
24047236,49,25,1
24065948,25,16,1
24084676,36,16,1
24103396,64,1,1
24121068,4,0,1
24137700,0,0,1
24154356,0,0,1
24170996,0,49,1
24188676,1,196,1
24207396,16,100,1
24227164,9,9,1
24243792,0,0,1
24260444,1,9,1
24277084,9,0,1
24293716,9,1,1
24310356,0,9,1
24327004,0,4,1
24343648,49,0,1
24361320,36,1,1
24378996,9,16,1
24396676,25,16,1
24415404,1,64,1
24433080,25,169,1
24452836,25,25,1
24471540,64,0,1
24489232,49,0,1
24506920,1,0,1
24523556,16,1,1
24541236,36,0,1
24558924,0,0,1
24575556,16,1,1
24593232,4,4,1
24609888,25,9,1
24627556,0,0,1
24644200,4,4,1
24660832,0,9,1
24677476,1,9,1
24694112,1,0,1
24710744,0,0,1
24727392,9,4,1
24744032,4,0,1
24760676,25,4,1
24778356,1,16,1
24796044,9,16,1
24813720,9,16,1
24831392,9,16,1
24849076,0,9,1
24865708,0,9,1
24882364,0,1,1
24898996,1,4,1
24915636,4,16,1
24933308,4,1,1
24949956,16,1,1
24967636,36,16,1
24986352,36,25,1
25005072,16,16,1
25023804,4,1,1
25040428,16,9,1
25058120,1,9,1
25074764,4,1,1
25091404,25,4,1
25109076,1,100,1
25127796,49,196,1
25147556,49,100,1
25167316,25,16,1
25186032,16,9,1
25203708,4,4,1
25220348,0,16,1
25238040,25,25,1
25256744,36,16,1
25275476,1,4,1
25292120,1,1,1
25308752,4,196,1
25327468,4,441,1
25346192,16,64,1
25364916,1,0,1
25381556,1,0,1
25398188,1,4,1
25414836,0,9,1
25431476,4,1,1
25448116,1,0,1
25464740,0,16,1
25482452,1,9,1
25499076,49,4,1
25516748,36,0,1
25534420,1,4,1
25551076,16,1,1
25568756,0,16,1
25586432,0,1,1
25603072,0,9,1
25619716,4,0,1
25636348,0,0,1
25652996,25,0,1
25670680,1,49,1
25688360,1,121,1
25707068,9,36,1
25724748,0,36,1
25742432,9,9,1
25759076,4,16,1
25776752,0,64,1
25794436,0,49,1
25812124,4,0,1
25828760,81,36,1
25847476,49,25,1
25866188,0,0,1
25882844,0,1,1
25899480,1,1,1
25916116,1,1,1
25932744,1,0,1
25949404,25,9,1
25967068,9,49,1
25984756,9,36,1
26002440,16,16,1
26021152,16,4,1
26038828,4,81,1
26056512,0,9,1
26073164,0,16,1
26090844,49,9,1
26108516,169,16,1
26128272,64,16,1
26147004,1,0,1
26163636,9,1,1
26180280,1,4,1
26196908,25,9,1
26214600,25,16,1
26233312,4,9,1
26249960,4,16,1
26267624,49,225,1
26287396,9,49,1
26305072,9,1,1
26321712,0,9,1
26338360,1,1,1
26355000,16,81,1
26373708,0,64,1
26391388,9,49,1
26409072,4,25,1
26426752,0,0,1
26443392,4,1,1
26460032,4,0,1
26476684,1,16,1
26494356,0,100,1
26513076,0,81,1
26530752,4,49,1
26548448,4,9,1
26565080,1,0,1
26581716,1,0,1
26598352,16,1,1
26616044,64,25,1
26634752,49,81,1
26653468,25,36,1
26672200,9,1,1
26688840,4,0,1
26705468,0,0,1
26722112,0,1,1
26738752,0,0,1
26755404,0,0,1
26772032,0,16,1
26789704,25,0,1
26807392,36,0,1
26825084,4,25,1
26842756,0,36,1
26860432,0,16,1
26878124,4,16,1
26895792,4,1,1
26912440,1,36,1
26930108,4,64,1
26947792,0,0,1
26964428,9,81,1
26982116,1,9,1
26998748,0,9,1
27015404,4,0,1
27032028,1,49,1
27049720,16,4,1
27067400,9,9,1
27084044,9,25,1
27101728,4,1,1
27118352,4,0,1
27135000,0,1,1
27151640,0,9,1
27168272,16,9,1
27185948,36,0,1
27203632,9,4,1
27220276,1,25,1
27237944,1,9,1
27254600,49,1,1
27272280,36,4,1
27289956,1,1,1
27306592,16,9,1
27324280,4,16,1
27341968,4,1,1
27358604,9,9,1
27375232,1,0,1
27391876,4,4,1
27408520,1,36,1
27426192,4,4,1
27442832,25,4,1
27460508,4,1,1
27477152,49,9,1
27494840,9,9,1
27511476,0,9,1
27528116,25,16,1
27546840,25,36,1
27565556,9,1,1
27582204,9,100,1
27600924,16,361,1
27620676,0,64,1
27638356,49,9,1
27656036,9,9,1
27672680,0,4,1
27689320,0,1,1
27705956,0,4,1
27722596,0,4,1
27739244,16,4,1
27756912,16,0,1
27774592,4,1,1
27791224,0,4,1
27807876,1,36,1
27825548,0,16,1
27843236,25,1,1
27860904,36,0,1
27878592,0,4,1
27895224,36,4,1
27912920,100,16,1
27932668,16,81,1
27951392,9,9,1
27968040,16,4,1
27985704,9,9,1
28002352,4,16,1
28020040,0,4,1
28036676,1,1,1
28053312,4,4,1
28069964,0,16,1
28087644,25,36,1
28106364,4,4,1
28122996,0,4,1
28139644,1,16,1
28157324,64,1,1
28174996,81,0,1
28192672,1,1,1
28209316,0,16,1
28226988,4,9,1
28243632,16,64,1
28262348,4,361,1
28281088,4,121,1
28299804,0,0,1
28316428,9,81,1
28334120,16,36,1
28352848,49,4,1
28370512,4,25,1
28388192,0,36,1
28405880,0,49,1
28423560,0,64,1
28441228,0,36,1
28458908,16,1,1
28476592,25,1,1
28494276,4,1,1
28510916,0,16,1
28528588,0,1,1
28545236,0,1,1
28561868,4,16,1
28579556,4,49,1
28597216,0,64,1
28614920,1,9,1
28631548,16,16,1
28650264,36,36,1
28668992,0,25,1
28686676,25,4,1
28704360,16,9,1
28722040,0,49,1
28739716,1,9,1
28756360,16,1,1
28774036,36,1,1
28791708,1,81,1
28809396,4,64,1
28827076,4,16,1
28844756,4,4,1
28861388,0,0,1
28878040,36,9,1
28895716,100,25,1
28915476,36,4,1
28933152,0,81,1
28950836,1,25,1
28968524,16,4,1
28986196,4,4,1
29002836,4,9,1
29019488,1,9,1
29036112,0,0,1
29052752,0,4,1
29069392,9,0,1
29086040,25,4,1
29103716,25,49,1
29122436,49,49,1
29141164,16,0,1
29158840,4,25,1
29176512,0,4,1
29193148,0,1,1
29209796,1,4,1
29226436,0,9,1
29243076,1,36,1
29260752,9,25,1
29278448,16,9,1
29296112,1,4,1
29312748,0,49,1
29330428,1,36,1
29348116,4,81,1
29365808,4,169,1
29384516,9,49,1
29402196,4,9,1
29418844,1,36,1
29436512,16,49,1
29455232,1,4,1
29471884,36,4,1
29489556,1,0,1
29506200,1,0,1
29522840,1,0,1
29539484,0,1,1
29556124,1,4,1
29572760,16,4,1
29590432,1,64,1
29608124,25,36,1
29626836,64,0,1
29644512,100,0,1
29663228,4,36,1
29680916,9,100,1
29699636,1,9,1
29716276,4,4,1
29732920,4,1,1
29749552,0,0,1
29766192,0,1,1
29782836,0,1,1
29799476,0,4,1
29816116,0,4,1
29832752,0,0,1
29849396,1,4,1
29866036,9,9,1
29882680,0,4,1
29899312,16,1,1
29916996,81,4,1
29934676,9,25,1
29952352,9,9,1
29969000,49,9,1
29986680,16,49,1
30005404,1,25,1
30023076,1,0,1
30039708,9,0,1
30056348,4,0,7
30072996,0,1,7
30089644,1,0,7
30106276,0,4,7
30122908,4,0,7
30139568,4,9,7
30156200,4,36,7
30173868,1,16,7
30191548,4,4,7
30208204,16,1,7
30225876,4,1,7
30242516,81,9,7
30260192,25,9,7
30277876,9,16,7
30295556,1,64,7
30313224,0,49,7
30330928,4,1,7
30347560,16,9,7
30365236,16,1,7
30382912,16,36,7
30401640,1,1,7
30418276,4,0,7
30434908,16,25,7
30453628,4,16,7
30471312,16,1,7
30489004,16,9,7
30506672,0,64,7
30524348,0,1,7
30541000,1,9,7
30557636,4,9,7
30574280,1,25,7
30591960,1,0,7
30608592,9,0,7
30625240,9,4,7
30641876,9,4,7
30658512,16,0,7
30676204,1,1,7
30692828,0,0,7
30709468,1,0,7
30726108,9,0,7
30742756,0,1,7
30759392,0,1,7
30776032,0,4,7
30792668,0,1,7
30809324,1,16,7
30826984,4,9,7
30843628,1,9,7
30860272,16,1,7
30877964,0,1,7
30894596,36,1,7
30912276,1,1,7
30928920,36,0,7
30946604,25,1,7
30964268,1,9,7
30980912,0,16,7
30998596,9,16,7
31016296,36,4,7
31033968,1,1,7
31050588,1,0,7
31067236,1,1,7
31083876,1,9,7
31100512,4,0,7
31117156,25,1,7
31134832,25,4,7
31152516,1,1,7
31169152,16,0,7
31186824,16,0,7
31204520,0,1,7
31221152,0,0,7
31237784,1,0,7
31254420,0,0,7
31271072,1,0,7
31287708,0,0,7
31304344,0,0,7
31320992,0,0,7
31337632,0,0,7
31354272,0,0,7
31370904,0,0,7
31387544,0,0,7
31404192,0,0,7
31420832,0,1,7
31437472,0,1,7
31454108,1,1,7
31470756,1,0,7
31487392,0,0,7
31504024,0,0,7
31520668,1,0,7
31537316,4,0,7
31553956,1,0,7
31570592,0,0,7
31587224,1,0,7
31603876,1,0,7
31620524,0,1,7
31637152,1,1,7
31653792,0,0,7
31670444,0,1,7
31687076,0,0,7
31703720,1,1,7
31720348,0,1,7
31736988,0,0,7
31753640,0,1,7
31770264,0,0,7
31786904,0,0,7
31803548,0,0,7
31820192,0,0,7
31836832,0,0,7
31853468,0,1,7
31870112,0,0,7
31886752,0,0,7
31903380,0,0,7
31920024,0,0,7
31936676,0,0,7
31953312,0,0,7
31969944,0,0,7
31986588,0,0,7
32003232,0,0,7
32019872,0,0,7
32036504,0,0,7
32053144,0,0,7
32069792,0,0,7
32086432,0,0,7
32103064,0,0,7
32119704,0,0,7
32136352,0,0,7
32152992,0,0,7
32169624,0,0,7
32186264,0,0,7
32202912,0,0,7
32219552,0,0,7
32236180,0,0,7
32252828,0,0,7
32269476,1,0,7
32286112,0,0,7
32302744,0,0,7
32319388,0,0,7
32336032,0,0,7
32352672,0,0,7
32369312,0,0,7
32385948,0,0,7
32402592,0,0,7
32419232,0,0,7
32435860,0,0,7
32452500,0,1,7
32469152,0,0,7
32485792,0,0,7
32502432,0,0,7
32519068,0,0,7
32535712,0,0,7
32552352,1,0,7
32568984,0,0,7
32585624,0,0,7
32602272,0,0,7
32618916,0,0,7
32635556,0,0,7
32652188,0,0,7
32668828,0,0,7
32685472,0,0,7
32702100,0,0,7
32718744,0,0,7
32735392,0,1,7
32752032,0,0,7
32768664,0,0,7
32785304,0,1,7
32801952,0,0,7
32818592,0,0,7
32835224,0,0,7
32851864,0,0,7
32868512,0,0,7
32885152,0,0,7
32901784,0,0,7
32918424,0,0,7
32935068,0,0,7
32951712,0,0,7
32968344,0,0,7
32984984,0,0,7
33001632,0,0,7
33018272,0,0,7
33034912,0,0,7
33051548,1,0,7
33068192,0,0,7
33084832,1,0,7
33101472,1,1,7
33118108,1,0,7
33134752,0,0,7
33151404,0,0,7
33168036,0,1,7
33184664,0,0,7
33201308,0,0,7
33217948,0,0,7
33234584,0,0,7
33251224,0,0,7
33267872,1,1,7
33284516,0,0,7
33301156,0,1,7
33317784,0,0,7
33334432,0,0,7
33351080,0,1,7
33367712,0,1,7
33384344,0,0,7
33400992,0,0,7
33417632,0,0,7
33434272,0,0,7
33450912,0,1,7
33467552,0,0,7
33484196,0,0,7
33500832,0,0,7
33517464,0,0,7
33534112,0,0,7
33550752,0,0,7
33567384,0,0,7
33584024,0,0,7
33600672,0,0,7
33617312,0,0,7
33633948,0,0,7
33650584,0,0,7
33667232,0,0,7
33683872,0,0,7
33700500,0,0,7
33717140,0,0,7
33733792,0,0,7
33750432,0,0,7
33767072,0,1,7
33783704,0,0,7
33800348,0,0,7
33816992,0,0,7
33833632,0,0,7
33850260,0,0,7
33866908,0,0,7
33883552,0,0,7
33900192,0,1,7
33916824,0,4,7
33933480,0,4,7
33950116,1,0,7
33966752,0,0,7
33983384,0,0,7
34000032,0,0,7
34016668,0,0,7
34033300,0,0,7
34049944,0,0,7
34066592,0,0,7
34083232,0,0,7
34099864,0,0,7
34116504,0,0,7
34133152,0,0,7
34149788,0,0,7
34166424,0,0,7
34183068,0,0,7
34199712,0,0,7
34216348,0,0,7
34232988,0,0,7
34249628,0,0,7
34266272,0,0,7
34282924,0,0,7
34299556,0,0,7
34316188,0,0,7
34332832,0,0,7
34349472,0,0,7
34366104,0,0,7
34382744,0,0,7
34399392,0,1,7
34416032,0,0,7
34432676,0,0,7
34449304,0,0,7
34465964,0,1,7
34482600,0,0,7
34499224,0,0,7
34515864,0,0,7
34532512,0,0,7
34549148,0,0,7
34565780,0,0,7
34582428,0,0,7
34599072,0,0,7
34615712,0,0,7
34632340,0,0,7
34648984,0,0,7
34665632,0,1,7
34682272,0,0,7
34698908,0,0,7
34715544,0,0,7
34732188,0,0,7
34748832,0,0,7
34765464,0,0,7
34782104,0,0,7
34798752,0,0,7
34815392,1,0,7
34832028,0,0,7
34848664,0,0,7
34865308,0,0,7
34881952,0,0,7
34898584,0,0,7
34915228,0,0,7
34931884,1,1,7
34948512,0,0,7
34965152,0,1,7
34981784,0,0,7
34998428,0,0,7
35015072,0,0,7
35031704,0,0,7
35048340,0,0,7
35064992,0,1,7
35081632,0,0,7
35098260,0,0,7
35114900,0,0,7
35131548,0,0,7
35148192,0,0,7
35164828,0,0,7
35181468,0,0,7
35198120,0,0,7
35214752,0,0,7
35231380,0,0,7
35248024,0,1,7
35264668,0,4,7
35281320,0,1,7
35297944,0,0,7
35314584,0,0,7
35331232,0,0,7
35347880,0,0,7
35364508,0,1,7
35381144,0,1,7
35397796,0,0,7
35414428,0,0,7
35431072,0,0,7
35447704,0,1,7
35464352,0,1,7
35480992,0,0,7
35497628,1,0,7
35514260,0,0,7
35530912,0,0,7
35547552,0,1,7
35564180,0,0,7
35580824,0,0,7
35597476,0,0,7
35614112,0,0,7
35630744,0,0,7
35647384,0,0,7
35664036,0,0,7
35680680,0,0,7
35697312,0,0,7
35713940,0,0,7
35730592,0,0,7
35747236,0,0,7
35763876,0,1,7
35780504,0,0,7
35797152,0,0,7
35813788,0,0,7
35830424,0,0,7
35847068,0,0,7
35863712,0,0,7
35880360,0,0,7
35897000,0,0,7
35913628,0,0,7
35930268,0,0,7
35946912,0,0,7
35963544,0,1,7
35980188,0,1,7
35996832,0,0,7
36013472,0,0,7
36030104,0,0,7
36046740,0,0,7
36063388,0,1,7
36080032,0,0,7
36096668,0,0,7
36113308,0,0,7
36129952,0,0,7
36146592,0,0,7
36163224,0,0,7
36179864,0,0,7
36196508,0,0,7
36213152,0,0,7
36229784,0,0,7
36246424,0,0,7
36263072,0,0,7
36279712,0,0,7
36296348,0,0,7
36312988,0,0,7
36329628,0,0,7
36346272,0,0,7
36362904,0,0,7
36379548,0,1,7
36396192,0,0,7
36412840,0,0,7
36429476,0,1,7
36446108,0,9,7
36462752,0,4,7
36479400,0,1,7
36496024,0,0,7
36512668,0,0,7
36529324,0,1,7
36545964,0,1,7
36562596,0,0,7
36579228,0,0,7
36595880,0,0,7
36612508,0,0,7
36629140,0,0,7
36645784,0,0,7
36662436,0,0,7
36679072,0,0,7
36695712,0,0,7
36712344,0,0,7
36729000,0,0,7
36745628,0,0,7
36762264,0,0,7
36778908,0,1,7
36795564,0,1,7
36812204,0,1,7
36828832,0,0,7
36845464,0,0,7
36862112,0,0,7
36878752,0,0,7
36895392,0,0,7
36912024,0,0,7
36928668,0,0,7
36945312,0,0,7
36961944,0,1,7
36978588,0,1,7
36995240,0,0,7
37011868,0,0,7
37028500,0,0,7
37045144,0,0,7
37061788,0,0,7
37078440,0,1,7
37095072,0,1,7
37111700,0,0,7
37128348,0,0,7
37145000,0,1,7
37161632,0,1,7
37178272,0,1,7
37194920,0,4,7
37211560,0,36,7
37229236,0,4,7
37245864,0,1,7
37262524,1,1,7
37279148,1,0,7
37295792,0,0,7
37312428,0,4,7
37329076,0,0,7
37345712,0,1,7
37362348,0,1,7
37378984,0,0,7
37395636,1,0,7
37412264,1,0,7
37428904,0,0,7
37445540,1,0,7
37462196,0,0,7
37478824,0,0,7
37495464,0,0,7
37512096,0,0,7
37528748,0,0,7
37545388,0,1,7
37562024,0,0,7
37578660,0,0,7
37595312,0,0,7
37611956,0,0,7
37628596,0,1,7
37645224,0,9,7
37661884,0,9,7
37678512,0,1,7
37695144,0,0,7
37711784,0,0,7
37728432,0,0,7
37745064,0,0,7
37761704,0,0,7
37778336,0,0,7
37794992,0,0,7
37811628,1,0,7
37828272,0,0,7
37844896,0,0,7
37861552,1,0,7
37878184,1,0,7
37894832,1,1,7
37911464,0,1,7
37928112,0,1,7
37944748,0,1,7
37961384,0,0,7
37978016,0,0,7
37994672,0,4,7
38011304,0,9,7
38027956,1,1,7
38044576,0,0,7
38061232,0,0,7
38077872,0,1,7
38094508,0,0,7
38111148,0,0,7
38127792,0,0,7
38144424,0,0,7
38161072,0,0,7
38177704,0,0,7
38194352,0,1,7
38210980,0,0,7
38227620,0,0,7
38244256,0,0,7
38260908,0,0,7
38277544,0,9,7
38294184,0,36,7
38311864,1,9,7
38328512,0,0,7
38345144,0,0,7
38361780,0,0,7
38378416,0,0,7
38395068,0,0,7
38411712,0,0,7
38428344,0,0,7
38444988,0,0,7
38461632,0,0,7
38478268,0,0,7
38494912,0,1,7
38511536,1,0,7
38528188,0,0,7
38544824,0,0,7
38561464,0,0,7
38578100,0,0,7
38594756,0,0,7
38611392,0,0,7
38628036,0,0,7
38644672,1,1,7
38661312,0,0,7
38677944,0,0,7
38694592,0,1,7
38711220,0,0,7
38727884,0,1,7
38744516,0,0,7
38761152,0,1,7
38777792,0,0,7
38794432,0,0,7
38811064,0,0,7
38827716,0,0,7
38844348,0,1,7
38860988,0,0,7
38877624,0,0,7
38894260,0,0,7
38910900,0,0,7
38927552,0,0,7
38944184,0,0,7
38960832,1,1,7
38977456,0,0,7
38994108,0,0,7
39010744,0,0,7
39027388,0,0,7
39044024,0,0,7
39060672,0,0,7
39077304,0,0,7
39093952,0,0,7
39110576,0,0,7
39127232,0,1,7
39143876,0,9,7
39160512,0,4,7
39177140,0,0,7
39193792,0,0,7
39210424,0,0,7
39227064,0,0,7
39243696,0,0,7
39260352,0,0,7
39276996,0,1,7
39293632,0,0,7
39310256,0,0,7
39326912,0,0,7
39343552,0,0,7
39360192,0,0,7
39376828,1,0,7
39393472,0,0,7
39410112,0,0,7
39426752,0,1,7
39443384,0,0,7
39460028,0,0,7
39476672,0,0,7
39493304,0,0,7
39509940,0,0,7
39526596,0,0,7
39543232,0,1,7
39559864,0,0,7
39576500,0,0,7
39593152,0,0,7
39609784,0,0,7
39626424,0,0,7
39643068,0,0,7
39659720,0,1,7
39676344,0,0,7
39692988,0,0,7
39709628,0,0,7
39726268,0,0,7
39742900,0,0,7
39759544,0,0,7
39776180,0,0,7
39792836,0,0,7
39809464,0,0,7
39826104,0,0,7
39842744,0,1,7
39859404,0,1,7
39876032,0,0,7
39892676,0,0,7
39909308,0,1,7
39925956,0,1,7
39942584,0,0,7
39959224,0,0,7
39975860,0,0,7
39992512,0,0,7
40009148,0,0,7
40025780,0,0,7
40042416,0,0,7
40059072,0,0,2
40075704,0,0,2
40092348,0,0,2
40108984,0,0,2
40125628,0,0,2
40142272,0,1,2
40158912,0,4,2
40175540,1,0,2
40192192,0,0,2
40208820,0,0,2
40225464,0,0,2
40242108,0,1,2
40258756,0,0,2
40275388,0,0,2
40292032,0,0,2
40308664,0,1,2
40325312,0,0,2
40341944,0,0,2
40358580,0,0,2
40375216,0,0,2
40391872,0,0,2
40408516,0,1,2
40425152,0,0,2
40441788,1,0,2
40458440,1,1,2
40475072,0,0,2
40491704,0,0,2
40508348,0,0,2
40524992,0,0,2
40541628,9,0,2
40558276,4,1,2
40574912,0,0,2
40591564,0,0,2
40608196,4,0,2
40624828,25,0,2
40642512,9,1,2
40659152,0,1,2
40675792,9,0,2
40692424,9,0,2
40709068,1,1,2
40725712,0,1,2
40742348,1,0,2
40758984,1,0,2
40775620,4,0,2
40792276,9,0,2
40808904,0,0,2
40825556,4,1,2
40842180,9,9,2
40858836,1,1,2
40875464,0,0,2
40892104,0,0,2
40908736,4,0,2
40925404,0,0,2
40942032,36,0,2
40959716,49,0,2
40977388,64,0,2
40995072,1,0,2
41011716,0,0,2
41028344,9,0,2
41044988,1,1,2
41061640,1,1,2
41078272,0,0,2
41094912,1,1,2
41111548,25,9,2
41129236,64,4,2
41146924,64,1,2
41164596,36,4,2
41182280,4,4,2
41198912,4,4,2
41215552,0,0,2
41232196,25,1,2
41249876,4,0,2
41266516,1,0,2
41283152,1,0,2
41299796,169,0,2
41318520,289,4,2
41337244,36,9,2
41354912,0,1,2
41371548,9,9,2
41388204,9,9,2
41404844,1,1,2
41421472,25,0,2
41439148,0,0,2
41455796,9,0,2
41472424,9,0,2
41489072,0,1,2
41505704,25,9,2
41523404,9,1,2
41540036,4,1,2
41556664,0,0,2
41573300,0,0,2
41589952,9,0,2
41606588,4,0,2
41623240,1,1,2
41639868,4,0,2
41656516,4,0,2
41673152,25,1,2
41690836,9,1,2
41707480,1,1,2
41724124,4,0,2
41740748,0,0,2
41757388,4,0,2
41774028,0,0,2
41790672,16,0,2
41808344,16,0,2
41826032,0,1,2
41842660,0,0,2
41859324,9,1,2
41875948,100,0,2
41894676,121,1,2
41913396,100,9,2
41932116,9,9,2
41948748,0,4,2
41965392,1,1,2
41982044,9,1,2
41998672,64,0,2
42016352,49,1,2
42034040,1,1,2
42050676,25,0,2
42068356,9,0,2
42084992,0,4,2
42101632,0,1,2
42118276,9,0,2
42134912,9,0,2
42151556,49,0,2
42169244,169,1,2
42187964,0,9,2
42204596,16,4,2
42222284,0,1,2
42238908,36,1,2
42256608,49,1,2
42274268,0,25,2
42291948,4,4,2
42308592,81,1,2
42326276,100,0,2
42345008,16,0,2
42362680,25,4,2
42380364,81,0,2
42398032,64,1,2
42415716,16,0,2
42433404,1,1,2
42450044,4,1,2
42466680,9,0,2
42483316,36,1,2
42501000,16,1,2
42518684,4,1,2
42535324,16,0,2
42552996,64,1,2
42570668,100,1,2
42589396,25,4,2
42607064,4,9,2
42623720,0,1,2
42640352,4,0,2
42656996,0,0,2
42673636,9,1,2
42690276,4,0,2
42706920,25,0,2
42724604,0,1,2
42741240,25,4,2
42758920,1,0,2
42775544,16,0,2
42793236,36,1,2
42810912,0,0,2
42827556,16,0,2
42845244,36,0,2
42862932,64,1,2
42880600,1,9,2
42897224,25,4,2
42914912,64,0,2
42932600,64,0,2
42950272,0,9,2
42966916,1,4,2
42983564,1,1,2
43000196,25,0,2
43017876,64,0,2
43035548,49,4,2
43053244,1,1,2
43069864,4,0,2
43086516,1,0,2
43103148,36,0,2
43120844,0,1,2
43137480,1,0,2
43154124,9,0,2
43170744,0,1,2
43187400,9,0,2
43204032,1,1,2
43220676,16,0,2
43238336,9,0,2
43254996,9,1,2
43271624,81,0,2
43289308,169,4,2
43308040,1,1,2
43324676,36,0,2
43342356,9,0,2
43358984,4,0,2
43375632,36,0,2
43393324,9,1,2
43409964,0,4,2
43426592,0,0,2
43443236,1,1,2
43459880,0,0,2
43476516,4,0,2
43493160,9,1,2
43509800,0,1,2
43526432,16,0,2
43544112,25,0,2
43561792,4,0,2
43578440,36,0,2
43596124,196,1,2
43614840,36,9,2
43632512,0,1,2
43649156,1,0,2
43665804,9,1,2
43682440,1,1,2
43699076,9,1,2
43715716,36,0,2
43733396,100,4,2
43752116,25,1,2
43769780,0,4,2
43786440,16,1,2
43804120,25,4,2
43821796,36,4,2
43839460,25,0,2
43857156,4,4,2
43873796,1,1,2
43890436,16,0,2
43908120,0,0,2
43924756,25,1,2
43942444,121,0,2
43961148,9,4,2
43977800,0,9,2
43994440,9,0,2
44011068,9,0,2
44027708,25,4,2
44045396,64,4,2
44063084,36,4,2
44080744,9,9,2
44097396,0,1,2
44114036,16,0,2
44131724,9,0,2
44148344,4,0,2
44164984,4,0,2
44181632,0,0,2
44198284,0,0,2
44214916,1,0,2
44231560,4,0,2
44248204,36,0,2
44265880,25,0,2
44283548,9,4,2
44300192,0,0,2
44316836,64,0,2
44334508,16,0,2
44352196,1,4,2
44368828,49,1,2
44386512,196,0,2
44405232,196,9,2
44423952,81,9,2
44441640,16,1,2
44459328,1,1,2
44475948,49,0,2
44493636,36,4,2
44511320,0,9,2
44527956,1,0,2
44544592,1,0,2
44561236,49,0,2
44578912,64,1,2
44596592,16,4,2
44614268,1,0,2
44630916,121,0,2
44649640,4,1,2
44666280,121,4,2
44684996,9,1,2
44701628,36,16,2
44720360,36,1,2
44738036,16,9,2
44755712,4,0,2
44772352,0,0,2
44788992,0,0,2
44805632,0,1,2
44822264,49,1,2
44839960,36,0,2
44857644,1,4,2
44874284,0,0,2
44890908,4,0,2
44907556,9,0,2
44924204,4,1,2
44940832,4,1,2
44957472,49,1,2
44975164,81,1,2
44992832,81,0,2
45010516,16,4,2
45028192,0,1,2
45044848,25,1,2
45062532,121,1,2
45081228,4,9,2
45097872,4,0,2
45114512,0,4,2
45131160,1,0,2
45147800,1,1,2
45164428,4,0,2
45181076,64,0,2
45198760,100,1,2
45217480,1,9,2
45234104,25,0,2
45251796,25,4,2
45269472,25,1,2
45287148,1,1,2
45303804,4,1,2
45320444,1,1,2
45337072,4,4,2
45353704,4,0,2
45370348,0,0,2
45387008,49,4,2
45404680,100,0,2
45423392,0,9,2
45440040,16,1,2
45457712,49,1,2
45475396,16,0,2
45493080,100,1,2
45511808,196,1,2
45530528,196,9,2
45549232,256,9,2
45567948,16,1,2
45585636,81,9,2
45603320,256,0,2
45622036,81,16,2
45640756,1,4,2
45657404,0,0,2
45674028,16,0,2
45691704,4,0,2
45708364,64,0,2
45726044,4,1,2
45742676,1,0,2
45759312,0,0,2
45775952,4,0,2
45792596,4,0,2
45809224,81,0,2
45826924,121,1,2
45845640,64,1,2
45863316,16,1,2
45880988,9,0,2
45897624,9,1,2
45914280,36,1,2
45931956,16,1,2
45949636,9,4,2
45966280,1,1,2
45982920,49,4,2
46000592,36,0,2
46018272,49,1,2
46035952,1,1,2
46052600,49,0,2
46070276,0,0,2
46086904,25,0,2
46104592,1,4,2
46121232,4,9,2
46137872,16,1,2
46155560,49,0,2
46173252,25,0,2
46190916,25,1,2
46208600,81,0,2
46226276,144,4,2
46244996,36,0,2
46262684,4,1,2
46279312,1,1,2
46295944,4,0,2
46312604,16,1,2
46330284,16,4,2
46347960,36,0,2
46365632,0,0,2
46382280,169,1,2
46401008,49,1,2
46418680,16,4,2
46436344,64,4,2
46454044,36,9,2
46471724,0,0,2
46488352,0,0,2
46505000,25,1,2
46522684,4,0,2
46539316,9,0,2
46555960,4,0,2
46572596,49,0,2
46590276,25,0,2
46607960,0,1,2
46624588,81,0,2
46642272,4,0,2
46658924,9,1,2
46675556,1,0,2
46692192,0,0,2
46708836,1,0,2
46725480,16,0,2
46743156,16,0,2
46760840,0,1,2
46777484,0,0,2
46794124,81,1,2
46811788,81,4,2
46829472,36,9,2
46847164,25,0,2
46864832,64,0,2
46882516,121,4,2
46901228,4,4,2
46917876,9,4,2
46934516,25,0,2
46952200,16,0,2
46969876,49,0,2
46987556,0,0,2
47004200,9,1,2
47020840,25,9,2
47038524,169,0,2
47057232,25,4,2
47074912,4,16,2
47092588,1,0,2
47109236,4,0,2
47125876,1,1,2
47142508,36,0,2
47160192,9,4,2
47176836,16,4,2
47194520,9,1,2
47211148,4,0,2
47227796,49,1,2
47245476,36,1,2
47263152,9,0,2
47279788,9,0,2
47296428,100,0,2
47315164,0,0,2
47331796,4,4,2
47348436,9,1,2
47365072,81,1,2
47382760,36,16,2
47401476,81,4,2
47419156,36,0,2
47436844,0,1,2
47453488,1,0,2
47470132,0,1,2
47486752,0,4,2
47503396,1,0,2
47520032,25,1,2
47537704,4,0,2
47554356,4,1,2
47571012,49,1,2
47588680,64,1,2
47606348,49,4,2
47624032,36,4,2
47641724,1,1,2
47658356,1,0,2
47675000,4,0,2
47691640,16,0,2
47709324,0,1,2
47725964,49,1,2
47743636,1,4,2
47760288,9,9,2
47776920,0,0,2
47793552,4,0,2
47810192,4,0,2
47826832,9,1,2
47843488,100,4,2
47862188,121,0,2
47880912,9,4,2
47897548,169,0,2
47916272,169,4,2
47935000,16,1,2
47952676,1,9,2
47969324,16,1,2
47987004,25,1,2
48004672,36,1,2
48022348,36,0,2
48040044,16,1,2
48057724,0,4,2
48074356,16,0,2
48092036,25,0,2
48109716,4,0,2
48126352,25,0,2
48144036,4,1,2
48160672,0,0,2
48177324,0,0,2
48193960,1,0,2
48210596,16,4,2
48228264,1,16,2
48245968,64,4,2
48263640,100,1,2
48282356,4,4,2
48298988,49,1,2
48316676,144,0,2
48335396,4,0,2
48352036,16,0,2
48369728,1,0,2
48386356,9,0,2
48402996,0,1,2
48419628,1,0,2
48436276,36,0,2
48453952,169,4,2
48472680,121,9,2
48491396,16,16,2
48510124,144,9,2
48528832,49,0,2
48546516,1,1,2
48563136,0,0,2
48579800,9,0,2
48596440,1,0,2
48613080,100,4,2
48631784,49,0,2
48649476,9,9,2
48666104,0,0,2
48682760,64,1,2
48700444,25,0,2
48718124,0,4,2
48734768,1,0,2
48751396,9,4,2
48768036,4,0,2
48784676,36,0,2
48802356,25,1,2
48820036,16,4,2
48837712,100,0,2
48856448,144,4,2
48875156,169,1,2
48893868,25,9,2
48911552,1,4,2
48928196,1,1,2
48944836,4,0,2
48961472,49,1,2
48979164,64,1,2
48996840,1,4,2
49013476,9,1,2
49030112,25,1,2
49047804,9,4,2
49064424,49,0,2
49082112,16,1,2
49099796,1,0,2
49116448,25,1,2
49134120,16,0,2
49151796,9,4,2
49168448,16,1,2
49186124,121,1,2
49204836,1,4,2
49221472,9,1,2
49238124,16,1,2
49255796,100,0,2
49274508,144,0,2
49293236,100,0,2
49311960,36,4,2
49329624,144,4,2
49348356,169,4,2
49367080,64,9,2
49384752,16,1,2
49402428,16,0,2
49420104,81,0,2
49437792,16,0,2
49455484,9,0,2
49472128,81,0,2
49489800,100,1,2
49508528,16,4,2
49526196,16,1,2
49543876,100,1,2
49562592,0,9,2
49579244,64,9,2
49596908,16,0,2
49614596,0,1,2
49631228,100,0,2
49649952,441,0,2
49668676,196,9,2
49687384,16,25,2
49706116,4,1,2
49722764,1,0,2
49739400,36,4,2
49757072,4,1,2
49773724,0,1,2
49790356,81,0,2
49808036,289,1,2
49826748,144,9,2
49845488,0,9,2
49862112,0,0,2
49878760,100,0,2
49897468,196,4,2
49916204,81,9,2
49933864,0,1,2
49950508,81,0,2
49968204,169,0,2
49986920,169,9,2
50005636,64,9,2
50023312,36,9,2
50041004,36,9,2
50058676,25,4,6
50076356,4,4,6
50093000,36,4,6
50110676,16,0,6
50128364,4,1,6
50145000,49,0,6
50162672,1,1,6
50179324,9,1,6
50195952,16,0,6
50213628,1,0,6
50230272,25,0,6
50247956,1,0,6
50264596,36,4,6
50282280,1,0,6
50298928,64,1,6
50316592,121,0,6
50335316,16,0,6
50353004,81,0,6
50370676,361,4,6
50389404,196,9,6
50408112,36,9,6
50425784,196,4,6
50444512,361,1,6
50463224,49,9,6
50480912,1369,1,6
50500676,1521,16,6
50521472,4,81,6
50539144,1936,9,6
50558912,529,36,6
50578684,49,49,6
50597404,0,1,6
50614024,256,0,6
50632752,1521,1,6
50652512,1369,64,6
50673308,196,81,6
50693068,0,0,6
50709712,400,49,6
50729476,225,16,6
50749232,676,4,6
50767956,361,144,6
50788748,1521,0,6
50808496,2025,81,6
50829284,4096,36,6
50850116,841,361,6
50870912,2916,25,6
50891696,324,324,6
50912508,4624,1,6
50932256,4225,81,6
50953072,7225,25,6
50973868,36,361,6
50993616,25921,324,6
51016516,0,676,6
51035224,27889,3136,6
51059140,8836,1936,6
51082028,64,1600,6
51102828,1024,625,6
51124672,2401,81,6
51145460,1936,169,6
51167316,441,0,6
51186036,0,121,6
51204740,1296,121,6
51226576,625,36,6
51246340,10404,16,6
51268176,8100,729,6
51290016,0,64,6
51307700,20449,2809,6
51331628,1849,1024,6
51354492,24964,9,6
51375308,6084,25,6
51396108,26569,1600,6
51420012,0,81,6
51437696,17161,3249,6
51461628,1,961,6
51480360,2500,0,6
51500120,1024,1,6
51519872,4761,16,6
51540664,576,25,6
51560408,4225,169,6
51582272,10201,100,6
51605136,13689,289,6
51628008,10201,625,6
51650900,256,900,6
51671712,3481,576,6
51693540,12321,25,6
51715388,11025,529,6
51738264,900,900,6
51759044,6889,441,6
51780908,13456,100,6
51803796,6400,1089,6
51826664,1089,196,6
51848504,9801,9,6
51868272,0,484,6
51886984,4900,2401,6
51909860,18769,2116,6
51933784,784,81,6
51953540,19321,49,6
51975388,7921,2025,6
51998260,18496,100,6
52021140,5625,1,6
52040904,8100,2025,6
52063788,0,9,6
52080424,5041,2809,6
52103296,16900,4,6
52124092,6561,2025,6
52146984,625,324,6
52167784,7569,144,6
52189620,25,1,6
52207292,15376,225,6
52230188,22500,9,6
52250972,18225,2916,6
52274904,7921,1764,6
52297788,16,400,6
52317552,3969,529,6
52339384,324,16,6
52359136,64,484,6
52378908,729,1,6
52397632,324,1,6
52416348,2025,169,6
52438184,3721,144,6
52460024,1849,676,6
52481884,196,100,6
52502680,64,1,6
52520364,361,16,6
52540108,0,0,6
52556744,3136,81,6
52577552,4096,81,6
52598356,784,529,6
52619160,0,49,6
52636844,9,25,6
52654520,1,100,6
52673228,784,0,6
52691936,9409,9,6
52711716,17161,9,6
52732504,7225,625,6
52754324,12996,1089,6
52778232,0,441,6
52796976,0,1764,6
52816736,8100,4096,6
52839624,4096,841,6
52861456,30625,1,6
52882256,24649,1369,6
52906196,15625,2809,6
52930104,16900,1,6
52950900,14161,625,6
52973800,31684,576,6
52996668,6084,1600,6
53019544,1089,16,6
53040340,4225,100,6
53062196,7569,121,6
53084024,225,81,6
53103796,5625,64,6
53124596,18496,16,6
53146416,8281,784,6
53168260,9409,2304,6
53191136,14400,400,6
53214036,5041,324,6
53235872,7744,1024,6
53258736,1296,169,6
53280584,3969,225,6
53302424,1225,16,6
53323220,36,196,6
53343000,361,4,6
53361716,4761,9,6
53381468,7225,81,6
53402260,1681,441,6
53424100,441,256,6
53444924,784,49,6
53464668,529,9,6
53483384,1369,121,6
53505236,784,1,6
53523944,2401,324,6
53545776,12769,4,6
53566584,7056,169,6
53588416,784,1156,6
53610260,6084,9,6
53630032,729,400,6
53650828,729,9,6
53669552,2704,1,6
53689304,196,576,6
53710120,64,64,6
53728824,25,81,6
53747548,784,81,6
53767304,361,4,6
53786020,3969,225,6
53807852,6241,196,6
53829724,0,16,6
53847376,12305,1521,6
53871308,0,3025,6
53891060,4489,3025,6
53913944,225,1225,6
53935784,2401,9,6
53955548,3025,16,6
53976352,4,324,6
53995076,1521,9,6
54014832,16,49,6
54033568,100,1,6
54052284,256,16,6
54072016,3969,81,6
54092832,20164,4,6
54113632,5625,1369,6
54136516,1,784,6
54155228,36,0,6
54172924,121,49,6
54192676,3364,64,6
54213460,4225,16,6
54234272,4,529,6
54252984,0,441,6
54271700,9409,49,6
54292508,17424,100,6
54315384,8281,1521,6
54338252,5329,196,6
54360120,361,49,6
54379868,1296,625,6
54401712,361,36,6
54421456,81,441,6
54441232,1521,196,6
54463068,6400,36,6
54483860,21025,625,6
54506752,15129,441,6
54529636,900,784,6
54550428,4,900,6
54569160,1,64,6
54586840,36,4,6
54604500,729,4,6
54623224,6400,4,6
54642996,1849,169,6
54664820,400,289,6
54685624,729,25,6
54705396,3600,36,6
54726180,9216,16,6
54746980,529,484,6
54767788,4225,49,6
54788580,576,625,6
54809388,1225,49,6
54830192,169,0,6
54848912,625,361,6
54869696,576,1,6
54888428,1,16,6
54906104,12769,441,6
54928980,0,169,6
54947700,17424,1369,6
54971648,1156,3364,6
54994512,4624,289,6
55016340,16900,25,6
55038188,2916,361,6
55060020,81,676,6
55079780,1849,1,6
55099564,900,49,6
55119312,9,64,6
55136988,529,16,6
55156748,6084,0,6
55176496,1225,256,6
55198356,900,324,6
55219132,676,16,6
55238900,64,9,6
55256580,5329,0,6
55276336,12769,64,6
55298188,5184,169,6
55320036,1369,529,6
55341876,9,0,6
55358528,25,36,6
55377232,49,1,6
55394908,0,16,6
55412580,225,81,6
55432340,484,0,6
55451064,1849,1,6
55470828,1296,1,6
55490604,36,256,6
55510364,625,81,6
55530100,4761,25,6
55550896,2209,81,6
55571704,1764,196,6
55593536,6724,4,6
55613304,729,81,6
55633080,9,4,6
55649700,1296,4,6
55669472,324,49,6
55689240,729,4,6
55707952,4900,121,6
55729772,20449,64,6
55751604,19321,256,6
55774504,6084,1156,6
55797388,2025,361,6
55819224,784,16,6
55839004,1681,144,6
55860820,256,16,6
55880576,2401,0,6
55900356,1521,0,6
55920120,169,100,6
55940912,2304,144,6
55962760,3721,121,6
55984588,1024,324,6
56006420,576,225,6
56027228,5184,9,6
56047004,2401,121,6
56068836,2209,256,6
56090680,225,169,6
56111456,6241,196,6
56133296,2809,16,6
56154124,289,576,6
56174916,289,4,6
56193640,9,64,6
56211304,441,9,6
56230040,576,9,6
56248740,1849,25,6
56269544,1681,121,6
56291392,256,289,6
56312188,2401,9,6
56331952,900,144,6
56352740,961,36,6
56372512,576,81,6
56392244,10404,169,6
56415132,25600,16,6
56436988,7056,1764,6
56459852,10816,784,6
56482708,0,64,6
56500420,0,2500,6
56520188,144,3600,6
56542008,23409,49,6
56563876,0,484,6
56582572,9216,784,6
56604408,81,1225,6
56625228,3249,0,6
56644992,27889,49,6
56666828,0,2601,6
56686576,784,4356,6
56708428,15129,676,6
56731308,13924,225,6
56754188,4624,441,6
56776032,81,324,6
56795784,3249,169,6
56817620,2500,121,6
56839476,900,169,6
56860260,4900,0,6
56880016,6561,256,6
56901872,49,1024,6
56922672,2209,49,6
56943468,2025,196,6
56965304,144,0,6
56984012,289,64,6
57003772,4,36,6
57021460,2116,144,6
57043312,4,25,6
57060988,1521,1,6
57080736,529,81,6
57100508,3025,0,6
57120268,8464,225,6
57142108,3249,144,6
57163968,361,676,6
57184760,256,289,6
57205540,225,0,6
57224272,3600,4,6
57244032,4761,49,6
57264812,289,225,6
57285620,289,81,6
57305396,64,0,6
57323080,225,9,6
57341792,3481,4,6
57361540,4489,81,6
57382336,2116,225,6
57404180,3721,64,6
57425000,9,100,6
57443704,7056,100,6
57465540,6889,169,6
57487388,4225,576,6
57509232,6084,81,6
57530032,1849,400,6
57551864,144,484,6
57572676,4356,1,6
57592432,0,100,6
57611132,0,2116,6
57630896,256,2704,6
57652752,28561,289,6
57675620,4225,324,6
57697476,256,576,6
57718260,13924,49,6
57740104,12544,400,6
57762988,5625,1024,6
57785868,81,81,6
57804592,121,196,6
57825404,49,196,6
57845152,49,4,6
57862840,2304,16,6
57883624,100,49,6
57903380,1444,64,6
57924180,8281,121,6
57946024,841,121,6
57966820,1521,100,6
57988668,1444,36,6
58009468,4489,1,6
58029240,1764,225,6
58051064,484,64,6
58070828,4900,16,6
58091620,1089,169,6
58113456,2601,225,6
58135312,1024,121,6
58157152,961,225,6
58177956,529,1,6
58196672,49,169,6
58216428,1,16,6
58234124,9,16,6
58251796,25,25,6
58270516,841,1,6
58289240,144,0,6
58307964,729,144,6
58328752,1521,4,6
58348500,196,289,6
58369308,1444,49,6
58390116,1764,1,6
58409872,289,36,6
58429636,1156,25,6
58450428,121,25,6
58470196,121,16,6
58489964,1156,1,6
58509716,2116,16,6
58530516,900,144,6
58551316,441,25,6
58571068,256,0,6
58589796,256,0,6
58608508,25,36,6
58627232,361,0,6
58645952,225,9,6
58664672,64,81,6
58683380,900,0,6
58702104,529,16,6
58721856,15876,25,6
58743704,12996,324,6
58766600,1444,1521,6
58789468,196,361,6
58810264,4,16,6
58827952,16,64,6
58846680,25,1,6
58864368,16,49,6
58883088,100,1,6
58901792,625,16,6
58921552,36,121,6
58941320,64,4,6
58958988,1849,36,6
58979780,8100,25,6
59000580,4096,289,6
59022420,729,169,6
59043228,3025,36,6
59064028,2916,81,6
59084840,16,121,6
59104596,784,1,6
59123324,196,1,6
59142024,6561,16,6
59162836,4356,121,6
59184676,225,400,6
59205472,729,144,6
59226276,25,25,6
59244992,324,81,6
59264732,12321,4,6
59285564,3844,196,6
59307400,400,729,6
59328192,2025,9,6
59347944,1296,256,6
59369804,1024,16,6
59390600,841,169,6
59411376,1089,324,6
59433216,121,16,6
59452984,25,4,6
59470668,23716,0,6
59491460,18769,121,6
59514344,5041,1444,6
59537216,529,529,6
59558020,9409,49,6
59578836,11664,64,6
59600652,17424,841,6
59623540,1225,676,6
59645388,784,529,6
59666188,2704,36,6
59686992,784,225,6
59707792,2209,81,6
59728576,1444,361,6
59750436,0,9,6
59767072,1681,4,6
59786836,9,64,6
59804508,1156,1,6
59824276,1369,0,6
59844028,729,81,6
59863796,100,100,6
59884584,3136,1,6
59904348,8281,64,6
59925144,2500,529,6
59946992,784,256,6
59967800,900,1,6
59986520,1089,64,6
60007320,1024,81,6
60028120,441,9,6
60046828,484,100,6
60067632,81,121,7
60087412,25,0,7
60105068,1296,0,7
60124824,529,0,7
60143540,3481,121,7
60165392,4356,4,7
60185140,676,400,7
60205944,2025,64,7
60226756,3249,9,7
60246500,9801,81,7
60267296,17689,25,7
60289144,4489,900,7
60310988,2916,144,7
60332824,1849,4,7
60352604,81,441,7
60372348,6400,256,7
60394176,19600,25,7
60416028,13456,676,7
60438908,49,900,7
60458656,3136,169,7
60480484,3844,256,7
60502344,0,121,7
60521068,0,1225,7
60540820,13924,2209,7
60564748,8649,576,7
60586584,3136,841,7
60608432,676,1225,7
60630288,2500,4,7
60650028,289,169,7
60670836,16,0,7
60688528,256,49,7
60708268,289,196,7
60729068,169,0,7
60747800,324,0,7
60766524,225,9,7
60785224,81,0,7
60802904,576,4,7
60821632,961,4,7
60840352,100,25,7
60860112,4,81,7
60877784,9,16,7
60895476,25,0,7
60913156,1,1,7
60929796,36,16,7
60948524,9,1,7
60965160,0,9,7
60981800,0,16,7
60999472,1,9,7
61016112,0,4,7
61032760,9,0,7
61049400,25,1,7
61067076,25,0,7
61084772,100,1,7
61103488,144,1,7
61122200,1,4,7
61138828,16,0,7
61156512,121,1,7
61175236,49,0,7
61192916,9,0,7
61209548,324,0,7
61228276,36,0,7
61245948,361,64,7
61265712,529,9,7
61284436,64,36,7
61303152,529,4,7
61321880,1369,1,7
61341632,196,9,7
61360348,784,36,7
61380120,1764,4,7
61399872,64,49,7
61418604,1681,1,7
61438356,256,100,7
61459156,0,36,7
61476828,1,0,7
61493472,4,16,7
61511140,0,1,7
61527788,36,16,7
61546516,0,0,7
61563156,1,4,7
61579800,289,1,7
61598516,256,9,7
61617244,25,4,7
61634916,25,1,7
61652596,1,1,7
61669236,4,1,7
61685876,0,1,7
61702516,25,1,7
61720188,4,0,7
61736828,1,4,7
61753480,0,1,7
61770124,25,4,7
61787792,16,4,7
61805468,9,0,7
61822116,1,0,7
61838756,1,0,7
61855388,1,0,7
61872028,0,0,7
61888676,0,0,7
61905316,0,0,7
61921956,4,1,7
61938588,9,0,7
61955244,1,4,7
61971872,0,1,7
61988500,0,0,7
62005144,0,0,7
62021792,0,0,7
62038428,0,0,7
62055064,0,0,7
62071708,0,0,7
62088352,0,0,7
62104992,0,0,7
62121624,0,0,7
62138264,0,0,7
62154916,1,0,7
62171548,0,0,7
62188184,0,0,7
62204820,0,0,7
62221472,0,0,7
62238112,0,0,7
62254760,0,0,7
62271388,0,0,7
62288028,0,0,7
62304672,0,0,7
62321312,0,0,7
62337948,0,0,7
62354592,0,0,7
62371232,0,0,7
62387868,0,0,7
62404500,0,0,7
62421152,0,0,7
62437792,0,0,7
62454424,0,0,7
62471064,0,0,7
62487712,0,0,7
62504356,1,0,7
62520992,0,0,7
62537624,0,0,7
62554268,0,0,7
62570908,0,0,7
62587540,0,0,7
62604184,0,0,7
62620832,0,0,7
62637472,1,1,7
62654104,1,0,7
62670748,0,0,7
62687400,0,1,7
62704044,1,1,7
62720676,0,0,7
62737308,0,1,7
62753956,0,0,7
62770592,0,0,7
62787224,0,0,7
62803860,0,0,7
62820508,0,0,7
62837152,0,0,7
62853784,0,0,7
62870424,0,0,7
62887072,0,0,7
62903712,0,0,7
62920344,0,0,7
62936984,0,0,7
62953632,0,1,7
62970272,0,0,7
62986900,0,0,7
63003544,0,0,7
63020192,0,0,7
63036832,0,0,7
63053472,0,0,7
63070104,0,0,7
63086748,0,0,7
63103392,0,0,7
63120024,0,0,7
63136664,0,0,7
63153312,0,0,7
63169948,0,0,7
63186580,0,0,7
63203224,0,0,7
63219872,0,0,7
63236512,0,0,7
63253152,0,0,7
63269788,0,0,7
63286436,0,0,7
63303072,0,0,7
63319712,0,0,7
63336344,0,0,7
63352988,0,0,7
63369632,0,0,7
63386264,0,0,7
63402904,0,0,7
63419552,0,0,7
63436196,0,0,7
63452832,0,0,7
63469464,0,0,7
63486112,0,0,7
63502752,0,0,7
63519384,0,0,7
63536020,0,0,7
63552672,0,0,7
63569312,0,0,7
63585948,0,0,7
63602584,0,0,7
63619232,0,0,7
63635872,0,0,7
63652504,0,0,7
63669144,0,0,7
63685792,0,0,7
63702436,0,0,7
63719076,0,0,7
63735708,0,0,7
63752352,0,0,7
63768996,0,0,7
63785628,0,0,7
63802264,0,0,7
63818912,0,0,7
63835556,0,0,7
63852188,0,0,7
63868828,0,0,7
63885472,0,0,7
63902112,0,0,7
63918748,0,0,7
63935384,0,0,7
63952036,1,1,7
63968672,0,1,7
63985312,0,0,7
64001948,0,1,7
64018592,0,1,7
64035232,0,0,7
64051864,0,0,7
64068504,0,0,7
64085152,0,0,7
64101788,0,0,7
64118420,0,0,7
64135068,0,0,7
64151712,0,0,7
64168356,0,0,7
64184984,0,0,7
64201624,0,0,7
64218272,0,0,7
64234912,0,0,7
64251544,0,0,7
64268180,0,0,7
64284828,0,0,7
64301468,0,0,7
64318104,0,0,7
64334740,0,0,7
64351388,0,0,7
64368032,0,0,7
64384664,0,0,7
64401308,0,0,7
64417952,0,0,7
64434592,0,0,7
64451224,0,0,7
64467864,0,0,7
64484512,0,0,7
64501156,0,0,7
64517792,0,0,7
64534424,0,0,7
64551072,0,0,7
64567708,0,0,7
64584344,0,0,7
64600984,0,0,7
64617632,0,0,7
64634268,0,0,7
64650912,0,0,7
64667544,0,0,7
64684188,0,0,7
64700832,0,0,7
64717464,0,0,7
64734108,0,0,7
64750752,0,0,7
64767392,0,0,7
64784020,0,0,7
64800668,1,0,7
64817312,0,0,7
64833952,0,0,7
64850592,1,0,7
64867224,0,0,7
64883876,0,1,7
64900512,0,0,7
64917144,0,0,7
64933784,0,0,7
64950432,1,0,7
64967072,0,0,7
64983708,0,0,7
65000344,0,0,7
65016992,0,0,7
65033632,0,0,7
65050272,0,0,7
65066904,0,0,7
65083552,0,0,7
65100192,0,0,7
65116824,0,0,7
65133468,0,1,7
65150116,0,1,7
65166764,0,1,7
65183392,0,0,7
65200028,0,0,7
65216684,0,1,7
65233316,0,0,7
65249948,1,0,7
65266588,1,0,7
65283228,0,0,7
65299868,0,0,7
65316504,0,0,7
65333144,0,0,7
65349792,0,0,7
65366440,0,0,7
65383064,0,0,7
65399708,0,0,7
65416352,0,0,7
65432992,0,0,7
65449628,0,0,7
65466264,0,0,7
65482912,0,0,7
65499552,0,0,7
65516184,0,0,7
65532824,0,0,7
65549472,0,0,7
65566112,0,0,7
65582740,1,0,7
65599384,0,0,7
65616032,0,0,7
65632672,0,0,7
65649304,0,0,7
65665944,0,0,7
65682596,0,0,7
65699240,0,1,7
65715872,0,1,7
65732508,0,0,7
65749152,0,0,7
65765788,0,0,7
65782420,0,0,7
65799064,0,0,7
65815716,0,0,7
65832352,0,0,7
65848992,0,0,7
65865624,0,0,7
65882268,0,0,7
65898916,0,1,7
65915552,0,1,7
65932184,0,0,7
65948832,0,0,7
65965472,0,0,7
65982104,0,0,7
65998744,0,0,7
66015392,0,0,7
66032032,0,0,7
66048676,1,0,7
66065308,1,0,7
66081952,0,0,7
66098592,0,0,7
66115224,0,0,7
66131864,0,1,7
66148508,0,1,7
66165152,0,0,7
66181792,0,1,7
66198424,1,0,7
66215072,0,0,7
66231716,0,1,7
66248356,0,1,7
66264980,0,0,7
66281632,0,0,7
66298268,0,0,7
66314916,0,1,7
66331552,1,1,7
66348196,0,1,7
66364828,0,0,7
66381464,0,0,7
66398104,0,0,7
66414752,0,0,7
66431392,0,0,7
66448032,0,0,7
66464664,0,0,7
66481312,0,0,7
66497952,1,0,7
66514584,0,0,7
66531224,0,0,7
66547872,0,0,7
66564516,1,0,7
66581152,1,1,7
66597780,0,0,7
66614432,0,0,7
66631072,0,0,7
66647708,0,1,7
66664344,0,0,7
66680992,0,0,7
66697636,0,0,7
66714264,0,0,7
66730904,0,0,7
66747560,0,0,7
66764200,0,0,7
66780824,0,0,7
66797464,0,0,7
66814112,0,0,7
66830752,0,0,7
66847384,0,0,7
66864024,0,0,7
66880672,0,1,7
66897312,0,0,7
66913940,0,0,7
66930580,0,0,7
66947228,0,0,7
66963868,0,0,7
66980504,0,0,7
66997144,0,1,7
67013792,0,0,7
67030440,0,0,7
67047068,0,0,7
67063708,0,0,7
67080348,0,0,7
67096992,0,0,7
67113624,0,0,7
67130260,0,0,7
67146912,0,1,7
67163552,0,0,7
67180180,0,0,7
67196824,0,1,7
67213476,1,0,7
67230120,0,1,7
67246744,0,0,7
67263384,0,0,7
67280036,0,1,7
67296688,0,4,7
67313316,0,1,7
67329948,0,0,7
67346592,0,0,7
67363236,0,0,7
67379864,0,0,7
67396504,0,0,7
67413152,0,0,7
67429792,0,0,7
67446436,0,0,7
67463068,0,0,7
67479708,0,0,7
67496360,1,0,7
67512992,0,0,7
67529620,0,0,7
67546272,0,0,7
67562912,0,0,7
67579540,0,0,7
67596184,1,0,7
67612836,1,0,7
67629484,0,1,7
67646108,0,0,7
67662740,0,0,7
67679392,0,0,7
67696032,0,0,7
67712672,0,0,7
67729308,0,0,7
67745952,0,0,7
67762592,0,0,7
67779228,0,0,7
67795860,0,0,7
67812508,0,0,7
67829152,0,0,7
67845784,0,0,7
67862424,0,0,7
67879072,0,0,7
67895712,0,0,7
67912348,1,0,7
67928984,1,0,7
67945632,0,0,7
67962272,0,1,7
67978912,1,0,7
67995544,0,0,7
68012192,0,0,7
68028832,0,0,7
68045464,0,0,7
68062100,0,0,7
68078760,0,1,7
68095392,0,0,7
68112028,1,0,7
68128668,1,0,7
68145316,1,0,7
68161948,0,0,7
68178584,0,0,7
68195224,0,0,7
68211872,0,0,7
68228508,0,0,7
68245144,0,0,7
68261780,0,0,7
68278432,0,0,7
68295072,0,0,7
68311704,0,0,7
68328348,0,0,7
68344992,0,0,7
68361628,0,0,7
68378264,0,0,7
68394900,0,0,7
68411548,0,0,7
68428192,0,0,7
68444820,0,0,7
68461464,0,0,7
68478112,0,0,7
68494752,0,0,7
68511384,0,0,7
68528028,1,0,7
68544672,1,0,7
68561312,0,0,7
68577940,0,0,7
68594580,0,0,7
68611232,0,0,7
68627872,0,0,7
68644508,0,0,7
68661144,0,0,7
68677788,0,0,7
68694432,1,0,7
68711072,0,0,7
68727708,0,0,7
68744352,0,0,7
68760992,0,0,7
68777624,0,0,7
68794264,0,0,7
68810916,0,0,7
68827552,0,0,7
68844192,0,0,7
68860824,0,0,7
68877472,0,0,7
68894108,0,0,7
68910744,0,0,7
68927388,0,0,7
68944036,0,0,7
68960676,0,0,7
68977304,0,0,7
68993944,0,0,7
69010596,1,0,7
69027236,1,0,7
69043872,0,0,7
69060504,0,0,7
69077148,0,0,7
69093792,0,0,7
69110424,0,0,7
69127064,0,0,7
69143724,0,0,7
69160360,0,0,7
69176992,0,0,7
69193624,0,0,7
69210276,0,0,7
69226916,0,0,7
69243556,0,0,7
69260184,0,0,7
69276832,0,0,7
69293484,0,1,7
69310112,0,1,7
69326744,0,0,7
69343392,0,0,7
69360032,0,0,7
69376660,0,0,7
69393304,0,0,7
69409956,0,0,7
69426592,0,0,7
69443232,0,0,7
69459864,0,0,7
69476520,0,0,7
69493152,0,0,7
69509784,0,0,7
69526428,0,0,7
69543068,0,0,7
69559708,0,0,7
69576340,0,0,7
69592984,0,0,7
69609632,0,0,7
69626284,0,0,7
69642904,0,0,7
69659540,0,0,7
69676192,0,0,7
69692832,0,0,7
69709460,0,0,7
69726104,0,0,7
69742748,0,0,7
69759392,0,0,7
69776032,0,0,7
69792664,0,0,7
69809312,0,0,7
69825952,0,0,7
69842584,0,0,7
69859220,0,0,7
69875868,0,0,7
69892508,0,0,7
69909144,0,0,7
69925788,0,0,7
69942432,0,0,7
69959068,0,0,7
69975704,1,0,7
69992344,0,0,7
70008992,0,0,7
70025636,0,0,7
70042264,0,0,7
70058904,0,0,2
70075548,0,0,2
70092192,0,0,2
70108824,0,0,2
70125464,0,0,2
70142108,0,0,2
70158748,0,0,2
70175388,1,0,2
70192028,1,0,2
70208672,0,0,2
70225312,0,0,2
70241944,0,0,2
70258584,0,0,2
70275232,1,0,2
70291872,1,0,2
70308512,0,0,2
70325144,0,0,2
70341796,0,0,2
70358428,0,0,2
70375072,0,0,2
70391708,0,0,2
70408352,0,0,2
70424992,0,0,2
70441624,0,0,2
70458264,0,0,2
70474916,1,0,2
70491556,0,1,2
70508196,0,0,2
70524828,0,0,2
70541472,0,0,2
70558108,0,0,2
70574740,0,0,2
70591384,0,0,2
70608036,0,0,2
70624672,0,0,2
70641304,0,0,2
70657944,0,0,2
70674592,0,0,2
70691232,1,0,2
70707876,1,0,2
70724504,0,0,2
70741152,0,0,2
70757796,1,0,2
70774424,4,0,2
70791068,4,1,2
70807724,4,0,2
70824364,0,1,2
70840992,9,1,2
70857624,16,0,2
70875316,16,0,2
70892992,0,1,2
70909632,4,1,2
70926264,0,0,2
70942912,25,0,2
70960592,100,1,2
70979324,4,1,2
70995948,169,1,2
71014684,0,1,2
71031320,100,0,2
71050028,36,16,2
71068756,9,9,2
71085404,16,0,2
71103072,0,0,2
71119712,0,1,2
71136352,25,1,2
71154032,9,0,2
71170672,0,0,2
71187308,1,0,2
71203956,0,0,2
71220592,1,0,2
71237236,1,1,2
71253872,25,0,2
71271564,1,1,2
71288192,1,0,2
71304828,4,0,2
71321468,1,0,2
71338112,16,0,2
71355800,4,1,2
71372448,4,1,2
71389072,4,0,2
71405708,0,0,2
71422352,0,0,2
71438996,9,0,2
71455632,16,0,2
71473324,1,0,2
71489964,1,1,2
71506596,9,0,2
71523228,4,1,2
71539876,0,0,2
71556520,1,0,2
71573144,0,0,2
71589788,0,0,2
71606432,4,0,2
71623076,9,0,2
71639720,0,0,2
71656348,4,0,2
71672992,0,1,2
71689648,0,1,2
71706280,1,0,2
71722908,1,1,2
71739556,9,0,2
71756192,25,0,2
71773872,0,1,2
71790508,4,0,2
71807164,25,1,2
71824840,0,0,2
71841472,9,0,2
71858100,1,0,2
71874752,0,0,2
71891388,4,0,2
71908028,1,0,2
71924672,9,1,2
71941316,16,4,2
71958988,1,0,2
71975636,0,0,2
71992264,1,0,2
72008916,0,0,2
72025556,4,0,2
72042184,16,0,2
72059868,4,0,2
72076516,1,0,2
72093152,4,0,2
72109796,9,0,2
72126428,9,0,2
72143076,4,0,2
72159700,0,0,2
72176344,1,0,2
72192992,1,0,2
72209644,1,1,2
72226272,0,1,2
72242920,1,0,2
72259552,16,0,2
72277236,49,1,2
72294920,4,1,2
72311552,0,1,2
72328180,1,0,2
72344836,1,0,2
72361476,4,1,2
72378112,0,0,2
72394748,16,1,2
72412432,16,0,2
72430124,4,1,2
72446756,4,1,2
72463392,0,1,2
72480032,0,0,2
72496672,0,0,2
72513308,0,0,2
72529952,1,1,2
72546592,16,0,2
72564280,16,0,2
72581948,1,0,2
72598584,9,0,2
72615236,49,0,2
72632916,64,4,2
72650596,4,9,2
72667232,0,1,2
72683872,9,0,2
72700508,25,0,2
72718188,1,1,2
72734832,0,0,2
72751476,1,0,2
72768116,4,0,2
72784744,9,0,2
72801400,1,1,2
72818040,9,0,2
72834676,0,1,2
72851304,0,0,2
72867956,0,0,2
72884604,4,1,2
72901232,4,0,2
72917880,16,0,2
72935560,36,1,2
72953244,1,4,2
72969872,4,0,2
72986504,1,0,2
73003152,0,0,2
73019796,1,0,2
73036432,0,0,2
73053076,1,0,2
73069712,4,0,2
73086352,4,0,2
73102996,36,0,2
73120668,81,0,2
73138364,4,4,2
73154992,0,4,2
73171624,0,0,2
73188256,0,1,2
73204920,0,1,2
73221556,25,0,2
73239248,16,0,2
73256920,4,1,2
73273568,4,0,2
73290196,1,1,2
73306828,1,0,2
73323460,16,0,2
73341164,36,1,2
73358836,36,0,2
73376520,25,1,2
73394196,9,0,2
73410836,1,0,2
73427476,1,0,2
73444116,25,0,2
73461792,25,0,2
73479476,4,0,2
73496108,25,1,2
73513796,0,0,2
73530428,0,0,2
73547072,0,0,2
73563708,1,0,2
73580344,0,0,2
73597000,36,0,2
73614680,16,1,2
73632344,25,1,2
73650024,100,1,2
73668764,81,4,2
73686444,9,4,2
73703076,0,1,2
73719708,4,4,2
73736360,16,1,2
73754032,16,1,2
73771720,1,4,2
73788340,1,0,2
73805000,0,0,2
73821620,0,0,2
73838268,4,0,2
73854904,16,0,2
73872596,1,0,2
73889224,4,0,2
73905860,0,0,2
73922508,1,1,2
73939152,9,1,2
73955784,0,0,2
73972424,1,0,2
73989068,1,0,2
74005712,0,0,2
74022340,0,0,2
74038988,4,0,2
74055616,16,0,2
74073316,1,0,2
74089956,1,0,2
74106592,9,0,2
74123220,4,0,2
74139888,4,0,2
74156512,25,0,2
74174196,25,1,2
74191868,9,1,2
74208516,1,0,2
74225144,1,0,2
74241796,1,0,2
74258428,0,0,2
74275072,0,0,2
74291712,1,0,2
74308352,25,1,2
74326044,25,0,2
74343724,1,0,2
74360364,1,1,2
74376984,0,0,2
74393632,0,0,2
74410288,0,1,2
74426924,9,0,2
74443556,9,0,2
74460200,0,1,2
74476832,9,0,2
74493484,0,0,2
74510124,9,1,2
74526764,1,0,2
74543396,1,0,2
74560040,0,0,2
74576672,0,0,2
74593316,1,0,2
74609952,1,1,2
74626600,1,0,2
74643236,1,4,2
74659880,1,1,2
74676512,0,0,2
74693164,4,1,2
74709788,1,0,2
74726432,16,0,2
74744112,25,0,2
74761792,16,1,2
74779472,9,0,2
74796112,36,0,2
74813804,81,1,2
74831476,0,1,2
74848116,25,1,2
74865796,9,0,2
74882432,9,0,2
74899076,9,0,2
74915712,25,0,2
74933400,4,1,2
74950048,1,4,2
74966680,4,1,2
74983312,9,0,2
74999956,9,1,2
75016596,0,0,2
75033240,64,1,2
75050904,289,4,2
75069628,64,4,2
75087316,16,1,2
75104996,100,0,2
75123708,81,1,2
75141404,1,4,2
75158048,9,1,2
75174680,81,0,2
75192360,36,4,2
75210036,9,4,2
75226676,16,0,2
75244352,121,0,2
75263084,25,4,2
75280764,1,9,2
75297396,16,1,2
75315076,0,4,2
75331720,9,0,2
75348356,25,0,2
75366036,16,0,2
75383704,0,4,2
75400348,0,4,2
75416996,4,1,2
75433636,25,0,2
75451316,4,1,2
75467964,36,4,2
75485628,16,0,2
75503312,0,1,2
75519940,16,0,2
75537636,25,1,2
75555316,1,0,2
75571956,1,0,2
75588580,0,0,2
75605236,1,0,2
75621876,0,1,2
75638500,0,0,2
75655136,4,0,2
75671796,4,0,2
75688436,9,0,2
75705072,1,0,2
75721704,16,0,2
75739396,4,0,2
75756024,4,1,2
75772668,1,0,2
75789300,9,1,2
75805964,16,0,2
75823644,0,1,2
75840276,9,0,2
75856912,0,0,2
75873556,4,0,2
75890212,4,0,2
75906832,1,0,2
75923472,0,0,2
75940120,0,1,2
75956756,1,4,2
75973396,1,0,2
75990040,4,0,2
76006684,4,1,2
76023320,1,4,2
76039944,0,0,2
76056592,16,0,2
76074284,36,0,2
76091952,25,0,2
76109632,16,0,2
76127320,0,0,2
76143948,0,0,2
76160588,9,0,2
76177232,16,1,2
76194912,0,1,2
76211552,25,4,2
76229240,169,1,2
76247960,1,4,2
76264604,225,9,2
76283320,81,4,2
76300992,4,4,2
76317616,0,0,2
76334276,1,0,2
76350916,0,1,2
76367556,49,0,2
76385228,196,0,2
76403952,49,9,2
76421632,0,4,2
76438276,0,0,2
76454908,36,1,2
76472604,225,0,2
76491316,144,9,2
76510032,16,9,2
76527728,0,0,2
76544368,1,1,2
76561000,1,0,2
76577636,9,1,2
76594280,36,1,2
76611960,4,4,2
76628588,9,0,2
76645240,16,0,2
76662924,4,0,2
76679568,1,0,2
76696196,0,4,2
76712836,16,0,2
76730524,121,0,2
76749232,256,9,2
76767960,121,16,2
76787704,25,4,2
76805404,49,1,2
76823080,64,9,2
76840756,4,1,2
76857400,0,1,2
76874048,1,1,2
76890668,0,0,2
76907308,1,0,2
76923956,0,0,2
76940592,0,1,2
76957228,0,0,2
76973868,0,0,2
76990524,0,1,2
77007152,9,0,2
77023788,25,0,2
77041472,0,1,2
77058116,16,0,2
77075796,0,0,2
77092440,1,0,2
77109076,1,0,2
77125724,36,1,2
77143400,81,0,2
77161076,4,1,2
77177716,0,1,2
77194372,49,0,2
77212048,144,0,2
77230748,0,9,2
77247388,81,4,2
77265084,9,1,2
77281716,49,0,2
77299396,36,1,2
77317076,0,1,2
77333712,1,1,2
77350356,9,0,2
77366988,9,0,2
77383640,9,1,2
77400288,49,0,2
77417948,36,0,2
77435628,49,4,2
77453300,16,0,2
77471004,1,0,2
77487632,1,0,2
77504264,0,0,2
77520920,1,0,2
77537556,4,0,2
77554204,0,1,2
77570828,0,0,2
77587476,1,0,2
77604120,25,1,2
77621804,36,1,2
77639484,1,4,2
77656116,1,4,2
77672756,1,0,2
77689396,36,0,2
77707076,81,0,2
77724764,0,4,2
77741408,0,1,2
77758036,36,1,2
77775712,0,0,2
77792356,9,0,2
77809000,25,1,2
77826684,25,4,2
77844364,0,1,2
77861004,1,1,2
77877632,16,1,2
77895312,4,0,2
77911956,1,1,2
77928596,0,1,2
77945240,1,0,2
77961868,4,0,2
77978508,1,0,2
77995156,9,0,2
78011796,9,0,2
78028440,36,0,2
78046108,16,1,2
78063796,0,1,2
78080428,4,0,2
78097068,4,0,2
78113712,36,0,2
78131400,0,0,2
78148032,1,0,2
78164668,36,0,2
78182352,121,0,2
78201076,49,4,2
78218744,16,9,2
78236428,4,0,2
78253076,4,0,2
78269724,36,1,2
78287396,16,1,2
78305076,0,1,2
78321724,1,0,2
78338360,1,0,2
78354988,36,0,2
78372668,81,4,2
78390360,25,9,2
78408044,1,4,2
78424684,16,1,2
78442356,0,0,2
78458992,64,0,2
78476680,100,1,2
78495396,0,9,2
78512028,121,0,2
78530760,64,4,2
78548432,0,4,2
78565072,0,1,2
78581708,9,1,2
78598364,25,1,2
78616036,16,1,2
78633720,1,1,2
78650352,1,0,2
78667000,0,0,2
78683636,0,1,2
78700276,25,0,2
78717960,49,0,2
78735636,0,0,2
78752280,0,4,2
78768916,9,0,2
78785556,1,0,2
78802204,9,1,2
78818836,9,0,2
78835476,16,0,2
78853156,0,0,2
78869792,0,0,2
78886444,1,0,2
78903076,4,1,2
78919716,4,0,2
78936356,1,0,2
78952992,9,0,2
78969636,1,4,2
78986272,0,0,2
79002912,4,1,2
79019556,0,0,2
79036188,9,0,2
79052836,49,1,2
79070524,49,1,2
79088196,25,4,2
79105876,0,1,2
79122524,9,0,2
79139164,1,0,2
79155796,1,0,2
79172424,1,0,2
79189068,0,0,2
79205716,4,0,2
79222352,1,0,2
79238988,4,0,2
79255640,16,0,2
79273316,1,0,2
79289952,0,1,2
79306588,1,0,2
79323240,16,0,2
79340920,100,4,2
79359628,36,1,2
79377304,4,4,2
79393952,0,1,2
79410596,16,0,2
79428264,25,0,2
79445952,36,1,2
79463636,9,1,2
79480264,25,0,2
79497952,100,0,2
79516680,1,0,2
79533320,81,0,2
79550996,16,4,2
79568676,1,1,2
79585328,1,0,2
79601952,49,0,2
79619636,100,0,2
79638356,16,4,2
79656032,9,1,2
79672676,4,0,2
79689320,4,0,2
79705948,4,0,2
79722600,0,0,2
79739232,4,0,2
79755864,9,0,2
79772512,9,0,2
79789148,0,1,2
79805796,9,0,2
79822436,121,1,2
79841144,121,4,2
79859872,9,4,2
79876516,4,1,2
79893148,4,1,2
79909788,0,0,2
79926440,16,1,2
79944112,9,1,2
79960756,9,1,2
79977380,49,0,2
79995076,16,0,2
80012756,4,4,2
80029400,1,1,2
80046028,0,0,2
80062672,0,0,7
80079320,1,0,7
80095944,36,0,7
80113628,9,0,7
80130276,0,0,7
80146916,0,0,7
80163552,81,0,7
80181228,256,0,7
80199968,1,9,7
80216600,9,1,7
80233236,1,1,7
80249880,4,1,7
80266524,64,1,7
80284204,36,4,7
80301880,4,1,7
80318524,1,1,7
80335160,4,0,7
80351796,4,0,7
80368428,4,0,7
80385084,36,0,7
80402768,36,0,7
80420436,16,4,7
80438108,4,0,7
80454756,4,0,7
80471392,0,0,7
80488024,1,0,7
80504672,49,0,7
80522360,0,1,7
80538996,1,0,7
80555636,0,0,7
80572268,0,0,7
80588924,4,0,7
80605552,9,1,7
80622196,169,1,7
80640920,361,4,7
80659632,49,9,7
80677320,9,9,7
80693952,25,1,7
80711628,16,1,7
80729312,36,1,7
80746996,1,0,7
80763632,0,0,7
80780268,1,0,7
80796924,0,1,7
80813552,0,0,7
80830192,0,0,7
80846820,0,0,7
80863476,4,0,7
80880116,36,1,7
80897792,64,4,7
80915480,25,4,7
80933160,1,1,7
80949792,0,0,7
80966432,0,0,7
80983076,4,0,7
80999712,16,0,7
81017396,0,1,7
81034032,36,0,7
81051724,16,0,7
81069408,4,1,7
81086028,36,0,7
81103716,4,1,7
81120360,0,1,7
81137004,49,0,7
81154688,25,1,7
81172356,4,9,7
81189004,0,0,7
81205640,225,1,7
81224352,841,1,7
81243056,324,16,7
81262836,64,25,7
81281560,25,4,7
81299232,0,1,7
81315880,0,1,7
81332520,0,1,7
81349156,4,0,7
81365796,25,0,7
81383484,4,0,7
81400124,0,1,7
81416756,1,0,7
81433392,0,0,7
81450032,0,0,7
81466676,1,0,7
81483308,1,0,7
81499956,1,1,7
81516592,0,0,7
81533232,0,0,7
81549876,0,0,7
81566516,0,0,7
81583152,0,0,7
81599792,0,0,7
81616424,0,0,7
81633064,0,0,7
81649712,0,0,7
81666352,0,0,7
81682980,0,0,7
81699624,0,0,7
81716272,0,0,7
81732912,0,0,7
81749556,0,0,7
81766188,0,0,7
81782832,0,0,7
81799472,0,0,7
81816104,0,0,7
81832744,0,0,7
81849404,0,1,7
81866032,0,0,7
81882660,0,0,7
81899304,0,0,7
81915952,0,0,7
81932592,0,0,7
81949228,0,0,7
81965860,0,0,7
81982508,0,0,7
81999152,0,0,7
82015792,0,0,7
82032428,0,0,7
82049084,0,1,7
82065716,0,0,7
82082344,0,0,7
82098984,0,0,7
82115632,0,0,7
82132276,0,0,7
82148916,0,0,7
82165548,0,0,7
82182192,0,0,7
82198836,0,0,7
82215468,0,0,7
82232112,0,0,7
82248752,0,0,7
82265392,0,0,7
82282024,0,0,7
82298664,0,0,7
82315312,0,0,7
82331952,0,0,7
82348592,0,0,7
82365232,1,1,7
82381880,0,1,7
82398512,0,0,7
82415152,0,0,7
82431784,0,0,7
82448432,0,0,7
82465068,0,0,7
82481704,0,0,7
82498344,0,0,7
82514996,0,0,7
82531644,0,0,7
82548264,0,0,7
82564912,0,0,7
82581552,0,0,7
82598196,0,0,7
82614824,0,0,7
82631464,0,0,7
82648112,0,0,7
82664752,0,0,7
82681388,0,0,7
82698032,0,0,7
82714672,0,1,7
82731324,0,0,7
82747952,0,0,7
82764592,0,0,7
82781232,0,0,7
82797872,0,0,7
82814504,0,0,7
82831152,0,0,7
82847792,0,0,7
82864432,0,0,7
82881072,0,0,7
82897712,0,0,7
82914352,0,0,7
82930992,1,0,7
82947632,0,0,7
82964272,0,1,7
82980916,1,0,7
82997564,0,0,7
83014192,0,0,7
83030828,0,0,7
83047476,0,0,7
83064112,0,0,7
83080744,0,0,7
83097384,0,0,7
83114036,0,1,7
83130672,0,1,7
83147316,0,1,7
83163952,0,0,7
83180596,1,1,7
83197244,0,4,7
83213872,0,0,7
83230504,0,0,7
83247148,0,0,7
83263792,0,0,7
83280424,0,0,7
83297060,0,0,7
83313716,0,0,7
83330352,0,0,7
83346984,0,0,7
83363632,0,0,7
83380276,0,1,7
83396924,0,1,7
83413556,0,1,7
83430196,0,0,7
83446836,0,0,7
83463468,0,0,7
83480108,1,0,7
83496744,0,0,7
83513392,0,0,7
83530044,0,1,7
83546668,0,0,7
83563300,0,0,7
83579952,0,0,7
83596592,0,0,7
83613224,0,0,7
83629868,0,0,7
83646520,0,0,7
83663152,0,0,7
83679792,0,0,7
83696424,0,0,7
83713076,0,0,7
83729712,0,0,7
83746352,0,0,7
83762984,0,0,7
83779632,0,0,7
83796272,0,0,7
83812904,0,0,7
83829552,0,0,7
83846196,0,1,7
83862836,0,1,7
83879464,0,0,7
83896104,0,0,7
83912752,0,0,7
83929392,0,0,7
83946024,0,0,7
83962664,0,0,7
83979316,1,0,7
83995952,0,0,7
84012584,0,0,7
84029224,0,0,7
84045872,0,0,7
84062512,0,0,7
84079144,0,0,7
84095784,0,0,7
84112432,0,0,7
84129072,0,0,7
84145704,0,0,7
84162352,0,0,7
84178992,0,0,7
84195632,0,0,7
84212272,0,0,7
84228904,0,0,7
84245548,0,0,7
84262192,0,0,7
84278832,0,1,7
84295472,0,1,7
84312116,0,1,7
84328752,0,0,7
84345400,0,0,7
84362032,0,0,7
84378676,1,0,7
84395316,1,0,7
84411948,1,0,7
84428584,0,0,7
84445232,0,0,7
84461872,0,0,7
84478504,0,0,7
84495144,0,0,7
84511792,0,0,7
84528432,0,0,7
84545064,0,0,7
84561700,0,0,7
84578352,0,0,7
84594992,0,1,7
84611632,0,0,7
84628264,0,0,7
84644912,0,0,7
84661552,0,0,7
84678180,0,0,7
84694828,0,0,7
84711468,0,0,7
84728112,0,0,7
84744740,0,0,7
84761384,0,0,7
84778032,0,0,7
84794676,0,0,7
84811304,0,0,7
84827952,0,0,7
84844592,0,0,7
84861232,0,0,7
84877864,0,0,7
84894504,0,0,7
84911152,0,0,7
84927792,0,0,7
84944424,0,0,7
84961060,0,0,7
84977712,0,0,7
84994352,0,0,7
85010996,0,0,7
85027632,0,0,7
85044272,0,0,7
85060912,0,0,7
85077544,0,0,7
85094184,0,0,7
85110832,0,0,7
85127472,0,0,7
85144112,0,0,7
85160744,0,0,7
85177388,0,0,7
85194032,0,0,7
85210672,0,1,7
85227304,0,0,7
85243952,0,0,7
85260592,0,0,7
85277224,0,0,7
85293872,1,0,7
85310512,0,0,7
85327160,0,0,7
85343780,0,0,7
85360424,0,0,7
85377076,0,0,7
85393712,0,0,7
85410344,0,0,7
85426984,0,0,7
85443628,0,0,7
85460272,0,0,7
85476908,1,0,7
85493548,1,0,7
85510196,1,0,7
85526832,0,0,7
85543464,0,0,7
85560104,0,0,7
85576748,0,0,7
85593392,0,0,7
85610024,0,0,7
85626668,0,0,7
85643312,0,0,7
85659952,0,0,7
85676592,0,0,7
85693224,0,0,7
85709872,0,0,7
85726508,0,0,7
85743144,0,0,7
85759788,0,0,7
85776428,0,0,7
85793076,0,0,7
85809708,0,1,7
85826352,0,0,7
85842992,0,0,7
85859632,0,0,7
85876264,0,0,7
85892904,0,0,7
85909552,0,0,7
85926196,0,0,7
85942828,0,0,7
85959472,0,1,7
85976112,0,1,7
85992752,0,0,7
86009384,0,0,7
86026024,0,0,7
86042672,0,0,7
86059312,0,0,7
86075948,1,0,7
86092596,0,0,7
86109244,0,0,7
86125872,0,0,7
86142504,0,0,7
86159144,0,0,7
86175796,0,0,7
86192432,0,0,7
86209064,0,0,7
86225716,0,0,7
86242352,0,0,7
86258988,0,0,7
86275632,0,1,7
86292264,0,0,7
86308912,0,0,7
86325552,0,0,7
86342192,0,0,7
86358824,0,0,7
86375472,0,0,7
86392112,0,0,7
86408748,0,0,7
86425396,0,0,7
86442032,0,0,7
86458672,0,0,7
86475304,0,0,7
86491944,0,0,7
86508592,0,0,7
86525232,0,0,7
86541864,0,0,7
86558500,0,0,7
86575148,0,0,7
86591796,0,0,7
86608436,0,0,7
86625064,0,0,7
86641712,0,0,7
86658348,0,0,7
86674984,0,0,7
86691636,0,0,7
86708272,0,0,7
86724916,0,0,7
86741548,0,0,7
86758180,0,0,7
86774832,0,0,7
86791472,0,0,7
86808116,0,0,7
86824752,0,0,7
86841400,0,0,7
86858032,0,0,7
86874664,0,0,7
86891304,0,0,7
86907952,0,0,7
86924592,0,0,7
86941232,0,0,7
86957864,0,0,7
86974508,0,0,7
86991148,0,0,7
87007784,0,0,7
87024424,0,0,7
87041068,0,0,7
87057708,0,0,7
87074340,0,0,7
87090980,0,0,7
87107636,0,0,7
87124272,0,0,7
87140912,0,0,7
87157544,0,0,7
87174192,0,0,7
87190832,0,0,7
87207460,0,0,7
87224104,0,0,7
87240752,0,0,7
87257396,0,0,7
87274028,0,0,7
87290664,0,0,7
87307312,0,0,7
87323956,1,0,7
87340584,1,0,7
87357228,0,0,7
87373884,0,1,7
87390516,0,0,7
87407156,0,0,7
87423792,0,0,7
87440432,0,0,7
87457076,0,0,7
87473712,0,0,7
87490344,0,0,7
87506988,0,0,7
87523632,0,0,7
87540264,0,0,7
87556912,0,0,7
87573552,0,0,7
87590188,0,0,7
87606824,0,0,7
87623464,0,0,7
87640112,0,0,7
87656752,0,0,7
87673384,1,0,7
87690032,0,0,7
87706672,0,0,7
87723316,0,0,7
87739952,0,0,7
87756588,0,0,7
87773228,0,0,7
87789872,0,0,7
87806504,0,0,7
87823144,0,0,7
87839796,0,0,7
87856428,0,0,7
87873060,0,0,7
87889704,0,0,7
87906352,0,0,7
87922992,0,0,7
87939632,0,0,7
87956260,0,0,7
87972912,0,0,7
87989552,0,0,7
88006184,0,0,7
88022824,0,0,7
88039476,0,0,7
88056112,0,0,7
88072740,0,0,7
88089384,0,0,7
88106032,0,0,7
88122676,0,0,7
88139316,0,0,7
88155940,0,0,7
88172588,0,0,7
88189232,0,0,7
88205864,0,0,7
88222500,0,0,7
88239152,0,0,7
88255792,0,0,7
88272424,0,0,7
88289064,0,0,7
88305712,0,0,7
88322352,0,0,7
88338984,0,0,7
88355624,1,0,7
88372272,0,0,7
88388916,0,1,7
88405556,0,0,7
88422192,0,0,7
88438832,0,0,7
88455472,0,0,7
88472112,0,0,7
88488744,0,0,7
88505388,0,0,7
88522028,0,0,7
88538660,0,0,7
88555300,0,0,7
88571952,0,0,7
88588596,0,0,7
88605232,0,0,7
88621868,0,0,7
88638512,0,0,7
88655148,0,0,7
88671784,1,0,7
88688424,0,0,7
88705076,0,0,7
88721712,0,0,7
88738344,0,0,7
88754988,0,0,7
88771636,0,0,7
88788272,0,0,7
88804904,0,0,7
88821552,0,0,7
88838192,0,0,7
88854832,0,0,7
88871464,0,0,7
88888104,0,0,7
88904752,0,0,7
88921392,0,0,7
88938028,0,0,7
88954660,0,0,7
88971312,0,0,7
88987952,0,0,7
89004584,0,0,7
89021232,0,0,7
89037868,0,0,7
89054512,0,0,7
89071152,0,0,7
89087784,0,0,7
89104432,0,0,7
89121072,0,0,7
89137704,0,0,7
89154344,0,0,7
89170992,0,0,7
89187628,0,0,7
89204264,0,0,7
89220904,0,0,7
89237560,0,0,7
89254192,0,0,7
89270824,0,0,7
89287468,0,0,7
89304112,0,0,7
89320748,0,0,7
89337384,0,0,7
89354020,0,0,7
89370676,0,0,7
89387320,0,0,7
89403952,0,1,7
89420592,0,1,7
89437228,0,0,7
89453868,0,0,7
89470504,0,0,7
89487152,0,0,7
89503800,0,1,7
89520432,0,1,7
89537064,0,0,7
89553704,0,0,7
89570348,0,0,7
89586996,0,0,7
89603624,0,0,7
89620264,0,0,7
89636912,0,0,7
89653552,0,0,7
89670184,0,0,7
89686832,0,0,7
89703484,1,0,7
89720120,0,0,7
89736748,0,1,7
89753384,0,0,7
89770032,0,0,7
89786672,0,0,7
89803304,0,0,7
89819948,0,0,7
89836588,0,0,7
89853232,0,0,7
89869864,0,0,7
89886508,0,0,7
89903152,0,0,7
89919788,0,0,7
89936424,0,0,7
89953072,0,0,7
89969712,1,0,7
89986348,0,0,7
90002984,0,0,7
90019620,0,0,7
90036272,0,0,7
90052912,0,0,7
90069548,0,0,5
90086184,0,0,5
90102832,0,0,5
90119476,0,0,5
90136112,0,0,5
90152744,0,0,5
90169392,0,0,5
90186032,0,0,5
90202668,0,0,5
90219316,0,0,5
90235952,0,0,5
90252592,0,0,5
90269224,0,0,5
90285872,0,0,5
90302512,0,0,5
90319156,0,0,5
90335796,1,0,5
90352428,1,0,5
90369072,0,0,5
90385712,0,0,5
90402340,0,0,5
90418988,0,0,5
90435636,1,0,5
90452268,0,0,5
90468908,0,0,5
90485544,0,0,5
90502192,0,0,5
90518832,0,0,5
90535460,0,0,5
90552104,0,0,5
90568752,0,0,5
90585388,0,0,5
90602024,0,0,5
90618664,0,0,5
90635308,0,0,5
90651952,0,0,5
90668584,0,0,5
90685232,0,0,5
90701876,0,0,5
90718512,0,0,5
90735144,0,0,5
90751784,0,0,5
90768432,0,0,5
90785072,0,0,5
90801704,0,0,5
90818344,0,0,5
90834992,0,0,5
90851632,0,0,5
90868268,1,0,5
90884912,0,1,5
90901556,0,4,5
90918200,0,1,5
90934836,4,1,5
90951464,0,0,5
90968120,25,0,5
90985804,1,1,5
91002436,0,1,5
91019064,16,0,5
91036764,64,1,5
91054432,121,9,5
91073160,361,4,5
91091868,256,9,5
91110592,0,25,5
91128268,36,25,5
91146992,361,16,5
91166756,64,100,5
91186520,64,81,5
91205240,256,16,5
91224984,36,0,5
91242672,196,9,5
91261388,256,1,5
91280124,1,49,5
91297792,9,484,5
91316524,9,144,5
91335232,4,961,5
91353952,4,3721,5
91373716,9,1681,5
91393476,16,49,5
91412196,4,64,5
91429876,100,4,5
91448596,361,1156,5
91470424,361,1936,5
91492264,49,196,5
91512044,25,324,5
91531804,400,400,5
91552588,196,121,5
91573392,49,625,5
91593152,64,729,5
91612912,49,361,5
91632680,121,4,5
91651392,81,81,5
91670104,49,9,5
91687800,0,49,5
91705480,25,36,5
91724196,9,361,5
91742904,49,64,5
91761624,121,784,5
91782444,81,289,5
91802192,121,2116,5
91824036,16,1849,5
91844844,9,529,5
91863556,1,4,5
91880196,9,16,5
91897880,9,100,5
91916592,16,1024,5
91937400,25,100,5
91957148,0,256,5
91975872,0,729,5
91994592,9,484,5
92013316,25,400,5
92033080,36,169,5
92052844,1,25,5
92070508,1,169,5
92089220,16,3136,5
92110032,81,2500,5
92130832,169,196,5
92151632,49,64,5
92170364,81,144,5
92190124,4,100,5
92208832,1,441,5
92227540,36,676,5
92247328,4,256,5
92266048,25,81,5
92284760,16,144,5
92304512,196,256,5
92325304,81,196,5
92345076,1,9,5
92361712,0,9,5
92378368,1,324,5
92397080,0,169,5
92415788,1,16,5
92433476,4,49,5
92451164,9,121,5
92469880,16,400,5
92489628,100,81,5
92509392,100,25,5
92529144,16,121,5
92548924,1,9,5
92565560,1,289,5
92584276,4,225,5
92602992,25,4,5
92620672,9,484,5
92639396,0,676,5
92658108,9,36,5
92675804,1,81,5
92693472,1,361,5
92712200,0,169,5
92730912,1,1369,5
92750664,289,3481,5
92772512,484,1764,5
92794348,16,441,5
92814124,1,9,5
92830756,4,9,5
92847396,16,361,5
92867144,36,169,5
92886908,1,81,5
92904596,49,121,5
92924364,9,1,5
92940992,0,121,5
92959700,0,100,5
92978440,0,4,5
92995084,0,9,5
93011720,0,9,5
93028348,1,36,5
93046044,0,9,5
93062688,0,0,5
93079320,0,1,5
93095960,16,121,5
93115724,25,576,5
93135464,16,196,5
93155228,4,49,5
93172924,1,144,5
93191644,1,1,5
93208276,1,36,5
93225952,49,0,5
93243636,25,121,5
93263408,1,784,5
93282120,4,9,5
93298768,9,169,5
93317480,0,0,5
93334116,25,0,5
93351784,4,196,5
93370512,25,225,5
93390272,0,49,5
93407940,0,900,5
93426660,1,400,5
93445400,25,324,5
93465148,64,1089,5
93485952,49,576,5
93505724,16,100,5
93525476,4,81,5
93543152,0,25,5
93560824,16,36,5
93579568,0,576,5
93598276,25,841,5
93618036,1,225,5
93636756,121,529,5
93657548,324,1764,5
93679396,144,144,5
93700204,0,9,5
93716840,0,16,5
93734520,4,1,5
93751148,16,2116,5
93771952,144,6241,5
93793796,169,900,5
93814596,9,4,5
93831244,16,169,5
93851000,0,121,5
93869716,1,16,5
93887388,4,25,5
93905080,0,49,5
93922752,9,144,5
93941476,16,625,5
93961236,36,361,5
93980996,1,49,5
93998676,0,100,5
94017396,1,144,5
94036132,25,1,5
94053804,100,49,5
94073544,0,36,5
94091224,0,36,5
94108916,0,169,5
94127636,100,36,5
94147396,64,289,5
94167172,1,676,5
94185884,0,225,5
94204592,0,9,5
94221236,1,196,5
94239968,0,196,5
94258676,25,64,5
94277392,9,529,5
94296120,1,1024,5
94315884,64,256,5
94335636,49,25,5
94354352,0,49,5
94372040,16,4,5
94389708,25,289,5
94409472,49,784,5
94429252,49,0,5
94446916,1,441,5
94465624,0,784,5
94484352,4,324,5
94503072,4,289,5
94521792,36,529,5
94541548,25,144,5
94561328,1,361,5
94580040,4,225,5
94598756,9,4,5
94615388,16,121,5
94635156,25,225,5
94654920,4,144,5
94673624,0,0,5
94690260,0,16,5
94707956,0,0,5
94724592,1,81,5
94742264,1,144,5
94761000,0,169,5
94779724,16,529,5
94799472,4,256,5
94818208,1,1,5
94834840,4,121,5
94853560,9,484,5
94872276,36,441,5
94892040,0,64,5
94909716,100,1,5
94928436,25,100,5
94948192,49,256,5
94967960,49,100,5
94987720,1,4,5
95004356,1,25,5
95022028,4,0,5
95038684,16,169,5
95058432,64,729,5
95078184,25,256,5
95097956,0,64,5
95115648,9,9,5
95132280,16,81,5
95150984,0,1,5
95167644,1,9,5
95184284,25,484,5
95204036,64,961,5
95223796,36,25,5
95242512,0,225,5
95261236,9,4,5
95277876,4,4,5
95294524,4,144,5
95313240,49,529,5
95332984,196,144,5
95353784,9,1,5
95370440,16,256,5
95390192,4,81,5
95407876,0,64,5
95425564,1,0,5
95442192,0,144,5
95460912,9,25,5
95478588,0,484,5
95497316,0,36,5
95515004,1,1,5
95531640,9,36,5
95549316,4,36,5
95567004,4,49,5
95584672,64,4,5
95602356,1,36,5
95620028,36,100,5
95639804,4,4,5
95656436,81,25,5
95675156,25,225,5
95694924,25,625,5
95714684,49,1089,5
95735472,25,841,5
95755228,9,16,5
95772916,1,121,5
95791636,4,49,5
95809312,0,1,5
95825964,0,9,5
95842608,9,9,5
95859236,36,289,5
95878984,36,2304,5
95899804,81,2809,5
95920600,25,1089,5
95941388,25,1296,5
95962192,225,2116,5
95984036,121,961,5
96004832,1,0,5
96021480,9,81,5
96039152,36,16,5
96057876,1,9,5
96074516,0,16,5
96092200,0,9,5
96108844,1,9,5
96125476,0,1,5
96142116,4,36,5
96159804,25,9,5
96177484,1,9,5
96194112,0,16,5
96211792,0,1,5
96228440,0,144,5
96247156,16,625,5
96266920,36,49,5
96285624,1,16,5
96303320,4,81,5
96320996,9,36,5
96338668,0,900,5
96357396,4,169,5
96376116,0,81,5
96393788,9,289,5
96412516,25,36,5
96431236,1,1,5
96447880,4,196,5
96466600,4,784,5
96485312,9,576,5
96504040,4,16,5
96521712,1,289,5
96540436,0,441,5
96559164,1,196,5
96577880,4,4,5
96594516,16,81,5
96613236,49,25,5
96631964,0,36,5
96649632,1,100,5
96668352,0,225,5
96687076,25,1089,5
96707884,169,1444,5
96729708,25,361,5
96749468,0,16,5
96767156,4,256,5
96785876,4,36,5
96803552,16,100,5
96823324,0,81,5
96840992,0,49,5
96858672,36,196,5
96878436,16,49,5
96897164,0,36,5
96914836,0,36,5
96932508,1,0,5
96949148,4,0,5
96965804,0,4,5
96982440,25,36,5
97001144,36,0,5
97018828,4,49,5
97036536,1,1,5
97053160,16,36,5
97071876,49,0,5
97089568,16,1,5
97107232,81,169,5
97126988,49,121,5
97146752,0,4,5
97163404,16,16,5
97182112,16,36,5
97200836,25,1,5
97218508,25,81,5
97237244,0,121,5
97255964,0,9,5
97272596,1,0,5
97289232,1,16,5
97306924,1,0,5
97323564,1,64,5
97341236,9,25,5
97358924,4,9,5
97375552,25,4,5
97393224,0,0,5
97409876,1,4,5
97426516,1,100,5
97445236,1,100,5
97463948,0,4,5
97480596,4,100,5
97499316,0,25,5
97516988,0,16,5
97534676,1,1,5
97551312,4,0,5
97567952,0,16,5
97585632,1,9,5
97602264,0,4,5
97618912,1,4,5
97635564,0,4,5
97652196,4,121,5
97670920,49,289,5
97690672,49,25,5
97709392,0,9,5
97726028,1,49,5
97743720,0,4,5
97760364,0,36,5
97778040,25,1,5
97795716,4,4,5
97812348,1,0,5
97829008,1,25,5
97846684,36,225,5
97866436,25,169,5
97886188,4,64,5
97903880,9,25,5
97921560,1,16,5
97939232,16,144,5
97959004,9,36,5
97976680,0,1,5
97993316,4,1,5
98009960,1,1,5
98026600,1,16,5
98044276,25,64,5
98062992,16,1,5
98080664,0,1,5
98097312,0,9,5
98113964,1,1,5
98130600,1,0,5
98147240,4,4,5
98163876,1,0,5
98180516,4,1,5
98197148,0,1,5
98213792,0,9,5
98230448,1,196,5
98249156,4,144,5
98267876,1,4,5
98284508,0,36,5
98302196,1,100,5
98320916,25,64,5
98339636,100,1,5
98358364,81,4,5
98376048,9,0,5
98392676,9,49,5
98410364,16,196,5
98430124,1,289,5
98448824,0,25,5
98466512,1,16,5
98484184,16,36,5
98502916,4,9,5
98519556,16,4,5
98537232,9,0,5
98553880,4,196,5
98572600,16,1681,5
98593384,100,961,5
98614188,16,0,5
98631868,16,225,5
98651632,4,2401,5
98671392,81,1024,5
98692192,9,121,5
98710928,4,9,5
98727548,81,256,5
98747300,64,0,5
98765004,25,144,5
98784744,64,9,5
98802444,0,81,5
98820124,36,144,5
98839880,81,4,5
98857564,0,1,5
98874196,4,121,5
98892924,9,289,5
98911644,4,81,5
98929316,0,121,5
98948036,0,16,5
98965720,25,900,5
98985476,36,625,5
99005232,0,144,5
99023952,16,1296,5
99044752,16,441,5
99064512,0,4,5
99081144,4,121,5
99099880,0,361,5
99118596,49,25,5
99137316,64,16,5
99156048,0,100,5
99174764,1,16,5
99192432,9,25,5
99210116,4,0,5
99226752,4,9,5
99243404,9,16,5
99261072,0,121,5
99279784,16,0,5
99297492,0,576,5
99316192,49,529,5
99335952,25,25,5
99354684,0,400,5
99373400,0,100,5
99392116,1,36,5
99409796,4,4,5
99426448,9,121,5
99445156,4,169,5
99463880,1,361,5
99482592,9,256,5
99501320,0,144,5
99520048,1,144,5
99538756,9,36,5
99556448,1,36,5
99574124,1,4,5
99590756,0,121,5
99609476,25,0,5
99627164,25,64,5
99645876,4,16,5
99663548,1,16,5
99681232,4,49,5
99698920,1,49,5
99716592,1,49,5
99734288,0,0,5
99750928,9,16,5
99768600,4,324,5
99787320,0,4,5
99803952,25,1156,5
99824764,36,900,5
99844516,4,64,5
99862184,4,441,5
99880904,100,1225,5
99902756,4,100,5
99921476,100,4,5
99940196,9,1,5
99956848,25,81,5
99975540,324,1024,5
99997388,100,2704,5
100019240,16,1089,5
100041080,25,121,5
100061876,0,144,2
100081624,0,81,2
100100368,16,4,2
100119092,16,25,2
100138828,4,784,2
100158600,25,1225,2
100180424,0,1,2
100198120,324,1,2
100217872,256,784,2
100239716,1,2500,2
100260504,4,1444,2
100281316,1,9,2
100299004,4,225,2
100318756,4,484,2
100338512,1,1296,2
100359316,9,900,2
100379080,1,64,2
100397800,0,9,2
100415476,1,169,2
100435236,196,1,2
100455008,576,361,2
100476824,225,256,2
100498684,100,36,2
100519480,1,1,2
100537156,49,49,2
100556912,144,169,2
100578744,36,16,2
100598520,64,1296,2
100620348,25,3844,2
100642192,121,2704,2
100665072,49,64,2
100684840,25,529,2
100705636,36,196,2
100726432,0,1369,2
100747220,0,81,2
100765960,4,81,2
100784684,36,81,2
100804428,25,100,2
100825236,1,64,2
100843948,4,49,2
100862684,9,4,2
100880344,121,1296,2
100903236,529,1521,2
100926112,256,121,2
100947952,1,144,2
100967724,9,9,2
100985408,4,400,2
101005160,4,196,2
101024912,0,64,2
101043624,9,100,2
101063388,25,100,2
101084200,100,576,2
101106040,4,361,2
101125796,9,9,2
101143480,9,0,2
101161160,49,16,2
101180904,9,9,2
101198588,36,784,2
101219400,49,100,2
101240204,25,81,2
101259960,1,484,2
101279712,0,25,2
101298436,36,144,2
101319228,0,256,2
101338996,4,36,2
101357724,4,9,2
101375392,324,4,2
101395156,576,4,2
101414920,16,36,2
101434688,49,16,2
101454428,16,9,2
101473156,289,4,2
101492912,225,1,2
101512676,0,1,2
101530356,81,9,2
101549080,4,16,2
101567796,9,9,2
101585476,64,4,2
101604196,1,1,2
101621880,64,1,2
101640612,1,25,2
101659312,169,36,2
101680104,100,9,2
101699884,4,1,2
101717560,1,1,2
101735244,0,1,2
101752924,81,0,2
101771644,36,4,2
101790348,4,0,2
101808024,16,0,2
101826764,144,4,2
101846512,225,25,2
101867300,81,0,2
101886036,16,9,2
101904752,0,0,2
101922428,25,0,2
101941152,4,0,2
101958832,9,9,2
101976516,16,16,2
101996276,1,4,2
102013984,1,1,2
102031632,9,0,2
102049312,4,0,2
102067000,169,0,2
102086768,289,1,2
102106520,36,0,2
102125240,16,16,2
102144992,36,4,2
102163720,1,1,2
102181404,1,4,2
102199068,9,4,2
102216764,9,0,2
102234444,16,1,2
102253160,16,1,2
102271872,49,0,2
102290604,25,1,2
102309308,64,0,2
102328032,100,9,2
102347808,256,0,2
102367564,64,1,2
102386272,4,16,2
102404980,0,0,2
102422672,36,0,2
102441396,144,0,2
102461144,64,4,2
102479868,0,9,2
102497560,0,1,2
102515252,0,1,2
102532916,0,9,2
102550600,25,0,2
102569320,1,0,2
102586992,9,4,2
102604664,16,0,2
102623400,49,1,2
102642120,4,1,2
102659796,1,1,2
102677468,9,0,2
102695156,9,0,2
102712832,16,0,2
102731556,81,0,2
102750284,36,1,2
102768992,0,9,2
102786676,0,0,2
102804364,0,4,2
102822048,36,0,2
102840756,169,0,2
102860516,81,4,2
102879224,25,1,2
102897952,25,1,2
102916664,64,1,2
102935384,121,1,2
102955156,64,0,2
102973872,0,9,2
102991544,25,4,2
103010272,9,1,2
103027960,0,0,2
103045636,16,1,2
103064360,0,0,2
103082044,25,1,2
103100760,49,1,2
103119464,0,0,2
103137164,121,1,2
103156920,64,0,2
103175636,9,1,2
103193316,1,1,2
103210992,1,0,2
103228684,9,1,2
103246364,1,1,2
103264032,25,0,2
103282752,0,0,2
103300440,4,1,2
103318108,0,1,2
103335788,16,16,2
103355556,49,0,2
103374276,0,1,2
103391960,9,1,2
103409620,0,0,2
103427324,0,0,2
103444980,0,0,2
103462668,1,0,2
103480372,196,1,2
103500128,361,1,2
103519888,144,9,2
103539620,121,16,2
103560436,144,1,2
103580204,196,1,2
103599956,64,1,2
103618680,25,0,2
103637392,25,0,2
103656120,100,1,2
103675876,144,0,2
103695636,0,1,2
103713312,0,1,2
103730996,16,1,2
103749728,1,0,2
103767408,64,1,2
103786108,49,4,2
103804832,0,1,2
103822516,81,0,2
103841236,49,1,2
103859952,4,1,2
103877628,0,1,2
103895316,1,0,2
103912996,0,0,2
103930668,1,0,2
103948356,49,1,2
103967084,36,9,2
103985796,36,9,2
104004512,144,1,2
104024276,25,1,2
104042992,0,1,2
104060676,0,0,2
104078356,100,0,2
104098120,144,4,2
104117868,0,9,2
104135552,81,1,2
104154284,49,4,2
104172996,4,4,2
104190676,1,0,2
104208348,121,0,2
104228112,361,0,2
104247876,16,9,2
104266596,0,9,2
104284284,0,4,2
104301952,16,25,2
104321712,49,4,2
104340424,81,4,2
104359156,100,1,2
104378924,81,1,2
104397636,9,16,2
104416360,1,9,2
104434032,16,4,2
104452756,36,25,2
104472512,49,16,2
104492284,0,16,2
104511000,49,4,2
104529716,81,4,2
104548444,4,1,2
104566120,0,0,2
104583800,9,0,2
104601480,0,1,2
104619164,36,1,2
104637864,100,1,2
104657640,9,9,2
104675308,16,4,2
104694032,25,0,2
104712756,1,0,2
104730428,64,0,2
104749152,324,0,2
104768920,169,9,2
104788676,4,25,2
104807392,0,0,2
104825084,9,0,2
104842756,49,1,2
104861476,16,0,2
104880204,100,4,2
104899964,196,4,2
104919716,9,16,2
104938428,4,0,2
104956128,25,0,2
104974844,144,1,2
104994596,169,1,2
105014364,9,25,2
105033092,16,1,2
105051796,25,0,2
105070516,1,1,2
105088208,0,0,2
105105884,49,1,2
105124588,4,0,2
105142256,64,0,2
105160992,36,0,2
105179716,0,9,2
105197396,0,1,2
105215084,4,0,2
105232756,64,0,2
105251468,64,0,2
105270188,25,4,2
105288916,100,0,2
105308684,121,0,2
105328424,0,9,2
105346112,16,0,2
105364844,1,9,2
105382504,16,0,2
105401232,25,1,2
105419960,0,0,2
105437636,4,1,2
105455320,36,1,2
105474032,4,1,2
105491724,64,1,2
105510448,100,0,2
105530192,1,1,2
105547876,0,0,2
105565556,9,1,2
105583236,4,0,2
105600916,4,1,2
105618596,0,0,2
105636280,9,0,2
105653960,4,1,2
105671628,4,0,2
105689324,4,9,2
105706996,16,0,2
105725716,36,0,2
105744436,16,0,2
105763152,0,0,2
105780832,81,1,2
105799552,25,1,2
105818272,4,1,2
105835948,0,0,2
105853636,9,1,2
105871312,0,0,2
105888992,81,0,2
105907708,361,0,2
105927472,529,9,2
105947244,361,25,2
105968036,25,25,2
105987796,81,4,2
106006500,64,0,2
106025248,25,1,2
106043956,121,0,2
106063716,1,4,2
106081396,121,4,2
106101156,0,0,2
106118832,64,0,2
106137552,9,4,2
106155232,0,1,2
106172908,25,1,2
106191632,1,0,2
106209316,121,4,2
106229076,121,0,2
106248836,16,16,2
106268588,4,0,2
106286284,9,1,2
106303952,144,0,2
106323712,81,9,2
106342432,16,16,2
106362192,4,0,2
106379868,25,0,2
106398588,49,0,2
106417328,529,0,2
106437080,784,4,2
106456844,225,36,2
106477644,4,25,2
106496364,36,1,2
106515080,100,0,2
106534824,100,9,2
106554596,144,1,2
106574364,81,4,2
106593076,1,9,2
106610760,1,0,2
106628440,49,0,2
106647152,100,0,2
106666908,1,4,2
106684596,1,9,2
106702280,16,0,2
106720992,49,0,2
106739716,196,4,2
106759488,16,1,2
106778196,100,1,2
106797948,4,0,2
106815644,144,1,2
106835388,16,4,2
106854116,16,4,2
106872828,9,0,2
106890528,1,9,2
106908204,36,1,2
106926908,1,0,2
106944608,4,0,2
106962288,0,1,2
106979952,16,9,2
106998672,16,0,2
107017392,0,0,2
107035076,9,1,2
107052760,36,0,2
107071472,1,1,2
107089152,0,0,2
107106832,0,0,2
107124504,25,0,2
107143244,121,1,2
107163008,25,4,2
107181728,64,1,2
107200432,49,1,2
107219164,25,1,2
107237872,36,0,2
107256600,9,1,2
107274280,121,0,2
107294040,49,1,2
107312756,9,1,2
107330432,9,4,2
107348108,4,1,2
107365792,0,0,2
107383484,4,1,2
107401148,9,0,2
107418832,0,1,2
107436516,16,0,2
107455232,25,0,2
107473952,0,1,2
107491644,100,4,2
107511384,324,0,2
107531152,289,4,2
107550916,81,16,2
107570672,0,9,2
107588344,1,1,2
107606032,16,0,2
107624752,400,0,2
107644516,676,9,2
107664264,64,25,2
107684032,25,16,2
107703784,0,0,2
107721476,36,1,2
107740200,0,1,2
107757884,1,1,2
107775564,225,0,2
107795316,529,1,2
107815080,4,25,2
107833800,0,16,2
107852512,16,1,2
107871228,16,4,2
107889964,121,9,2
107909708,81,0,2
107928424,0,4,2
107946124,1,1,2
107963804,4,9,2
107981476,1,0,2
107999148,25,1,2
108017884,4,1,2
108035568,64,1,2
108054276,121,4,2
108074036,36,4,2
108092756,4,1,2
108110428,1,4,2
108128104,0,4,2
108145808,1,1,2
108163484,9,0,2
108181148,1,0,2
108198820,25,0,2
108217556,16,0,2
108236280,1,9,2
108253956,4,1,2
108271640,64,0,2
108290352,0,4,2
108308032,25,4,2
108326756,1,4,2
108344440,36,1,2
108363160,4,4,2
108380832,36,0,2
108399548,16,4,2
108418288,4,1,2
108435956,1,1,2
108453636,64,1,2
108472352,9,1,2
108490044,144,1,2
108509792,144,4,2
108529552,1,16,2
108548276,1,0,2
108565944,0,0,2
108583636,0,1,2
108601308,36,4,2
108620036,64,0,2
108638764,49,25,2
108658516,4,4,2
108676204,81,1,2
108694920,81,0,2
108713632,64,0,2
108732340,9,4,2
108750032,81,0,2
108768752,25,9,2
108787472,4,1,2
108805164,36,0,2
108823888,81,1,2
108842596,0,1,2
108860284,1,0,2
108877952,289,0,2
108897712,441,1,2
108917476,100,16,2
108938284,36,16,2
108958048,16,9,2
108976748,1,4,2
108994436,9,0,2
109012128,4,1,2
109029800,36,1,2
109048512,36,1,2
109067228,0,9,2
109084912,1,0,2
109102584,1,0,2
109120276,1,1,2
109137968,36,1,2
109156676,81,4,2
109175384,324,0,2
109195156,4,9,2
109212844,64,1,2
109231556,25,4,2
109250280,9,0,2
109267952,9,0,2
109285640,1,0,2
109303324,0,1,2
109320988,0,0,2
109338676,4,0,2
109356352,144,0,2
109376116,196,0,2
109395868,0,1,2
109413556,49,4,2
109432272,64,1,2
109450996,49,0,2
109469716,1,0,2
109487396,36,4,2
109506120,576,0,2
109525876,625,16,2
109546676,100,49,2
109567476,49,16,2
109587240,1,1,2
109604928,4,4,2
109622604,16,4,2
109641312,16,4,2
109660036,1,0,2
109677720,16,1,2
109696432,0,4,2
109714116,144,0,2
109733868,81,1,2
109752604,4,1,2
109770280,49,0,2
109788984,324,0,2
109808760,36,4,2
109827472,9,16,2
109846196,49,1,2
109864908,9,1,2
109882596,16,9,2
109901304,16,0,2
109920032,9,1,2
109937720,16,4,2
109956436,0,0,2
109974116,4,0,2
109991784,0,0,2
110009476,0,0,2
110027156,1,0,2
110044832,0,0,2
110062508,16,0,6
110081244,9,4,6
110098912,9,1,6
110116596,16,0,6
110135320,9,0,6
110153004,25,4,6
110171716,9,1,6
110189396,1,0,6
110207072,25,0,6
110225792,25,0,6
110244512,36,1,6
110263228,64,4,6
110281964,1,1,6
110299636,4,0,6
110317324,225,0,6
110337088,256,1,6
110356844,9,9,6
110374516,49,1,6
110393240,16,9,6
110411956,100,0,6
110431716,16,9,6
110450436,4,0,6
110468124,49,0,6
110486848,256,4,6
110506588,36,4,6
110525320,1,1,6
110543000,1,0,6
110560676,196,0,6
110580432,484,0,6
110600188,169,9,6
110619956,25,25,6
110639716,1,1,6
110657384,64,1,6
110676124,121,1,6
110695876,81,4,6
110714592,4,1,6
110732268,324,0,6
110752040,49,9,6
110770760,9,16,6
110789472,25,1,6
110808200,36,1,6
110826924,9,4,6
110844596,25,0,6
110863308,16,0,6
110882048,9,16,6
110900764,36,4,6
110919472,121,0,6
110939232,25,4,6
110957952,81,4,6
110976676,256,4,6
110996424,49,4,6
111015160,100,0,6
111034920,361,0,6
111054680,49,4,6
111073396,25,16,6
111093156,49,0,6
111111868,196,0,6
111131628,9,9,6
111149320,64,1,6
111168044,49,1,6
111186752,16,0,6
111205480,256,1,6
111225240,100,1,6
111245000,64,16,6
111264752,16,1,6
111283480,441,4,6
111303236,25,16,6
111322996,9,9,6
111340688,1,9,6
111358364,36,1,6
111377076,64,4,6
111395788,361,9,6
111415560,169,4,6
111435316,625,9,6
111455076,2116,36,6
111476928,900,196,6
111498744,676,169,6
111520588,64,25,6
111540356,529,9,6
111560120,121,4,6
111579872,49,49,6
111599648,121,9,6
111619396,841,9,6
111639152,0,0,6
111656820,1225,9,6
111677632,16,36,6
111697384,1764,169,6
111720272,100,49,6
111741064,4356,49,6
111762904,10000,225,6
111786832,3600,729,6
111809708,1156,441,6
111832600,2116,144,6
111855464,1521,81,6
111877300,3969,64,6
111899156,6561,64,6
111920972,3600,529,6
111943872,6724,576,6
111966760,3249,256,6
111989624,6561,361,6
112012508,11236,324,6
112036416,1089,676,6
112059296,9,961,6
112079068,3969,100,6
112101952,22801,4,6
112123780,16641,484,6
112147704,7744,1296,6
112171620,7744,576,6
112194492,400,400,6
112216356,1,400,6
112236108,961,16,6
112256904,5329,49,6
112278764,1156,81,6
112300576,16,361,6
112321388,784,25,6
112342196,324,16,6
112362984,529,4,6
112382752,1681,64,6
112404592,10404,25,6
112427464,1600,529,6
112450344,1849,676,6
112473228,81,0,6
112491936,12769,100,6
112515864,17161,16,6
112538736,15625,1225,6
112563700,7056,441,6
112586580,784,324,6
112608436,289,625,6
112630272,1849,9,6
112651052,36,169,6
112671872,4096,0,6
112692672,27889,16,6
112715540,20449,1600,6
112740512,2401,2304,6
112764436,841,169,6
112786272,81,16,6
112806044,1296,25,6
112827864,1,1,6
112845552,2809,1,6
112866352,1600,25,6
112888196,81,361,6
112908988,784,81,6
112929788,3249,36,6
112951628,625,196,6
112973460,17161,196,6
112997396,0,169,6
113017144,9216,1849,6
113041072,49,529,6
113061844,15129,49,6
113084756,11449,169,6
113108680,4,900,6
113128424,5329,441,6
113151300,0,25,6
113170016,0,1600,6
113190816,17956,3025,6
113215788,121,729,6
113237628,256,324,6
113259456,4225,100,6
113282356,10404,100,6
113306260,22500,0,6
113328084,11881,1156,6
113353076,2025,196,6
113375932,0,64,6
113394660,7225,1225,6
113418588,9409,3025,6
113442500,9604,9,6
113463312,4489,529,6
113486184,2401,0,6
113506976,961,324,6
113528824,10609,225,6
113552736,15376,900,6
113576660,6400,900,6
113599532,2025,100,6
113622424,8836,289,6
113645316,5184,729,6
113668188,1296,361,6
113691064,1681,144,6
113713944,729,225,6
113735800,9604,4,6
113756584,49,676,6
113777372,14400,100,6
113801300,12544,841,6
113825228,1,900,6
113844972,15129,121,6
113868912,16900,25,6
113891788,4225,1225,6
113915704,11193,361,6
113939628,26273,2916,6
113964576,30976,6241,6
113989544,324,1681,6
114012436,1936,256,6
114035308,4225,0,6
114056088,3969,1,6
114076904,1024,169,6
114099780,225,49,6
114120584,625,36,6
114141392,529,36,6
114162188,1225,36,6
114184028,2304,36,6
114205876,12544,121,6
114229792,29584,576,6
114253700,3249,1369,6
114277632,4489,841,6
114300500,25921,0,6
114322332,7056,1089,6
114346264,784,2025,6
114369136,576,36,6
114389936,1681,100,6
114412828,4,196,6
114432584,225,0,6
114452332,11881,169,6
114476260,18225,361,6
114500192,49,1521,6
114522020,81,1,6
114540752,25,16,6
114560492,4624,529,6
114583384,21609,121,6
114607300,0,2116,6
114628112,13456,1089,6
114653056,1521,1764,6
114676980,1296,529,6
114699868,1369,289,6
114722744,2704,25,6
114744600,5625,225,6
114767480,7396,16,6
114789300,81,121,6
114810104,900,361,6
114831952,6241,1,6
114852740,2916,361,6
114875616,21316,784,6
114899548,8649,576,6
114922420,144,1024,6
114945320,1296,4,6
114966108,225,25,6
114986900,7744,49,6
115008744,24025,144,6
115032660,19600,1089,6
115057612,7569,2500,6
115081556,2025,625,6
115104428,100,64,6
115125224,4,289,6
115144992,625,4,6
115164740,6724,64,6
115186584,7921,256,6
115209472,361,729,6
115231312,9,1,6
115248980,676,16,6
115269804,625,121,6
115291624,1849,16,6
115313460,15376,16,6
115336348,16900,1444,6
115361320,169,1936,6
115384184,5776,144,6
115407068,5041,49,6
115428908,900,25,6
115449716,784,256,6
115471556,729,324,6
115493392,256,4,6
115513156,225,9,6
115532916,25,25,6
115552680,16,16,6
115572440,484,49,6
115593236,3136,4,6
115614036,729,100,6
115635868,1089,36,6
115657700,4356,49,6
115679544,11664,256,6
115703452,1681,441,6
115726344,2401,400,6
115749224,961,49,6
115770020,9,400,6
115789776,7396,1,6
115810592,4489,144,6
115833464,784,361,6
115855300,81,81,6
115875072,2601,64,6
115896896,9025,64,6
115918736,7921,361,6
115941640,2500,841,6
115964512,2704,361,6
115987388,0,169,6
116007164,784,4,6
116026924,100,81,6
116047692,7921,121,6
116070588,28561,25,6
116093476,2809,1024,6
116117380,16,1936,6
116139236,49,4,6
116157944,441,0,6
116177712,64,121,6
116198508,324,81,6
116219292,13225,0,6
116241136,17161,16,6
116264032,7921,841,6
116286904,17689,1225,6
116311848,6241,484,6
116334748,4,900,6
116354504,676,169,6
116376332,1521,36,6
116398176,225,144,6
116420020,1681,121,6
116442908,144,196,6
116464744,2704,196,6
116487632,225,36,6
116508424,1936,9,6
116529248,6724,49,6
116551072,1089,441,6
116573944,225,256,6
116595792,16,121,6
116616596,625,25,6
116637392,1849,64,6
116659240,729,16,6
116680032,3025,121,6
116702908,0,36,6
116721624,64,169,6
116742444,625,4,6
116762188,0,1,6
116779864,10201,49,6
116802732,0,169,6
116822504,0,2401,6
116843304,961,3364,6
116866176,6561,529,6
116889064,23716,16,6
116911936,19881,169,6
116935884,2500,1156,6
116959788,900,625,6
116981632,4624,4,6
117002420,11236,144,6
117026340,8281,961,6
117049224,144,529,6
117071084,5329,64,6
117092904,24025,169,6
117116820,2025,1089,6
117140756,1296,841,6
117163640,4489,36,6
117185456,1089,16,6
117207316,900,81,6
117228104,81,196,6
117248900,256,49,6
117269708,1225,16,6
117291560,2916,1,6
117312344,4489,121,6
117335232,121,289,6
117357080,100,100,6
117378916,0,4,6
117396580,4489,1,6
117417380,11236,36,6
117440284,841,841,6
117462112,64,256,6
117482920,4489,64,6
117504748,6241,169,6
117527632,1521,625,6
117550496,361,9,6
117570252,529,36,6
117591048,4900,289,6
117613940,11449,64,6
117636824,2500,1156,6
117660748,8649,9,6
117681552,225,784,6
117703368,6241,16,6
117725220,6724,225,6
117748108,81,4,6
117766824,16,400,6
117787620,3481,64,6
117809472,4,49,6
117828192,225,0,6
117847952,49,16,6
117867712,324,16,6
117888512,1444,9,6
117909300,7744,0,6
117930120,1521,441,6
117952984,144,361,6
117974832,196,0,6
117994596,144,36,6
118015400,0,144,6
118035156,169,4,6
118054904,25,0,6
118073648,9,9,6
118091308,169,0,6
118111060,225,64,6
118131876,625,25,6
118152660,16,36,6
118172420,16,49,6
118192200,2401,169,6
118215068,21316,4,6
118236904,1028,841,6
118259780,0,2304,6
118280588,9801,3844,6
118304496,289,1764,6
118327396,361,100,6
118349228,2025,0,6
118370032,1024,144,6
118392920,625,9,6
118412668,289,625,6
118434504,16,64,6
118454268,64,36,6
118474048,2116,49,6
118495864,2116,0,6
118516672,1600,81,6
118538512,900,121,6
118560356,36,100,6
118581160,529,81,6
118601952,784,4,6
118621716,4,36,6
118640424,49,25,6
118660204,121,9,6
118679964,576,36,6
118700740,1156,4,6
118721552,1024,16,6
118743396,625,49,6
118764192,25,25,6
118783940,64,25,6
118803724,36,16,6
118823472,0,0,6
118841152,361,9,6
118860924,441,1,6
118880680,100,36,6
118901484,1,0,6
118919148,9,1,6
118936836,484,9,6
118956604,841,0,6
118976352,784,25,6
118997160,36,9,6
119015876,1024,1,6
119036672,36,25,6
119056436,0,64,6
119075172,4,1,6
119092840,81,1,6
119111556,289,1,6
119131328,49,16,6
119151080,49,1,6
119169784,49,16,6
119189556,81,9,6
119208276,576,0,6
119228036,256,16,6
119248816,441,64,6
119269644,1225,16,6
119291476,961,4,6
119311232,81,25,6
119331004,16,4,6
119349716,9,1,6
119367404,0,4,6
119385080,100,1,6
119404832,16,0,6
119423548,144,0,6
119443304,3600,1,6
119464108,4624,64,6
119485944,784,289,6
119507792,169,121,6
119529636,144,4,6
119549396,289,25,6
119570188,1089,16,6
119592044,529,4,6
119611808,1,64,6
119630512,400,25,6
119651312,961,1,6
119671080,100,36,6
119691868,625,49,6
119712668,121,36,6
119733480,1,9,6
119751148,529,9,6
119770904,3249,4,6
119791716,2809,121,6
119814580,100,289,6
119836428,3136,4,6
119857232,7396,144,6
119880100,5625,169,6
119902976,5476,289,6
119925864,1521,484,6
119948740,324,196,6
119970588,81,4,6
119989308,484,36,6
120010108,64,9,6
120028832,1,81,6
120047544,324,0,6
120067316,361,16,1
120088112,4,64,1
120106816,1681,49,1
120128668,7569,16,1
120150508,2304,400,1
120173400,1,324,1
120193168,121,36,1
120213952,256,1,1
120233708,1444,64,1
120255556,144,1,1
120275316,16,9,1
120294028,0,25,1
120312740,16,4,1
120331476,256,25,1
120352264,324,0,1
120372032,841,0,1
120391796,49,4,1
120410524,256,25,1
120431308,81,25,1
120451060,1369,9,1
120471868,2209,49,1
120493704,2601,144,1
120516588,576,81,1
120537388,4225,81,1
120559224,13456,100,1
120583144,4489,484,1
120606048,484,484,1
120627872,1,16,1
120646580,729,1,1
120666360,324,9,1
120686124,25,289,1
120706908,0,16,1
120725640,225,25,1
120746432,36,16,1
120766192,16,25,1
120785960,121,25,1
120806760,25,9,1
120825472,2209,4,1
120846260,1521,4,1
120867080,144,49,1
120887872,0,25,1
120906588,361,0,1
120926360,0,25,1
120945072,289,25,1
120965876,49,0,1
120984584,1024,4,1
121005392,2116,49,1
121027220,121,81,1
121048024,4356,16,1
121069864,2809,144,1
121092744,625,289,1
121114576,16641,4,1
121136436,8836,441,1
121159304,576,961,1
121181144,16,169,1
121201960,625,9,1
121221700,289,49,1
121242504,19881,25,1
121265384,13225,400,1
121289308,144,1156,1
121312188,576,144,1
121334040,144,1,1
121353788,144,1,1
121373540,400,49,1
121394352,900,16,1
121415136,13225,64,1
121438032,1296,144,1
121460924,361,400,1
121482752,400,9,1
121502516,441,1,1
121522276,36,0,1
121540996,1,121,1
121560752,25,9,1
121579472,36,16,1
121599236,1444,49,1
121621056,7396,0,1
121641884,729,289,1
121663724,100,169,1
121685556,169,16,1
121706360,289,16,1
121727160,64,64,1
121746916,64,25,1
121766676,576,9,1
121786436,529,144,1
121808272,49,4,1
121826996,4,4,1
121844660,9,81,1
121863404,0,1,1
121881084,441,49,1
121901876,1024,64,1
121923708,1521,169,1
121946588,1156,25,1
121968428,400,81,1
121989248,225,144,1
122011092,256,1,1
122030832,529,9,1
122050584,2601,1,1
122071388,6241,25,1
122093224,784,256,1
122115068,100,169,1
122136912,64,4,1
122155628,9,49,1
122174356,144,9,1
122194116,144,25,1
122214920,0,4,1
122232584,0,1,1
122250284,81,4,1
122268992,49,9,1
122287708,49,0,1
122306432,121,0,1
122326216,169,0,1
122345960,729,0,1
122365712,36,9,1
122384440,100,9,1
122404200,49,4,1
122422912,49,1,1
122441628,625,1,1
122461392,121,4,1
122481156,25,9,1
122499864,16,1,1
122518592,0,1,1
122536284,1,0,1
122553948,16,0,1
122572668,4,1,1
122590352,9,0,1
122608036,4,0,1
122625704,64,1,1
122644416,81,0,1
122663160,16,4,1
122681872,16,4,1
122700596,16,0,1
122719316,9,0,1
122736996,81,0,1
122755716,49,1,1
122774428,100,1,1
122794212,4,1,1
122811872,144,4,1
122831636,9,1,1
122849320,289,9,1
122869072,144,9,1
122888828,16,4,1
122907548,9,0,1
122925232,36,1,1
122943944,49,0,1
122962672,25,9,1
122981396,16,4,1
123000120,100,0,1
123019864,676,1,1
123039632,256,9,1
123059400,1,36,1
123078116,196,0,1
123097872,144,4,1
123117640,1,1,1
123135324,0,4,1
123152996,36,4,1
123171720,196,0,1
123191484,81,1,1
123210200,1,9,1
123227868,16,1,1
123246580,169,0,1
123266364,169,0,1
123286116,25,9,1
123304828,0,4,1
123322516,1,0,1
123340196,0,0,1
123357888,0,1,1
123375552,4,0,1
123393240,16,0,1
123411968,36,1,1
123430672,49,0,1
123449400,100,0,1
123469164,144,1,1
123488916,0,4,1
123506588,49,1,1
123525320,25,1,1
123544036,0,1,1
123561724,64,1,1
123580432,81,0,1
123599152,25,4,1
123617872,16,4,1
123636596,25,0,1
123655324,36,1,1
123674036,49,4,1
123692752,25,0,1
123711468,9,1,1
123729156,64,0,1
123747880,25,4,1
123766604,25,1,1
123785324,4,0,1
123802996,9,0,1
123820676,36,0,1
123839388,0,1,1
123857076,1,4,1
123874744,49,0,1
123893480,16,0,1
123912188,25,4,1
123930920,169,0,1
123950676,100,1,1
123970436,64,9,1
123989160,169,0,1
124008912,49,4,1
124027636,36,16,1
124047400,100,1,1
124067164,16,4,1
124085876,4,0,1
124103556,16,0,1
124122280,0,1,1
124139956,4,0,1
124157632,25,0,1
124176348,9,1,1
124194044,0,0,1
124211716,25,1,1
124230428,36,0,1
124249156,1,0,1
124266836,9,0,1
124284516,100,0,1
124304272,81,4,1
124322992,36,9,1
124341720,0,1,1
124359384,36,0,1
124378104,25,0,1
124396836,0,9,1
124414512,16,1,1
124433236,100,0,1
124453000,64,1,1
124471732,1,4,1
124489388,0,1,1
124507064,1,0,1
124524760,4,0,1
124542440,64,0,1
124561152,1,4,1
124578848,49,4,1
124597556,64,0,1
124616276,81,0,1
124635000,36,0,1
124653720,144,1,1
124673468,1,9,1
124691144,0,9,1
124708824,4,4,1
124726524,49,0,1
124745244,256,0,1
124764996,49,0,1
124783716,1,4,1
124801392,1,1,1
124819068,625,0,1
124838828,1521,9,1
124859632,324,81,1
124880424,16,36,1
124900192,49,0,1
124918928,4,4,1
124936600,1,4,1
124954276,0,4,1
124971940,144,0,1
124991720,144,0,1
125011476,121,25,1
125032280,196,9,1
125052048,36,1,1
125070752,676,9,1
125090516,144,9,1
125110276,36,25,1
125130040,121,1,1
125149800,225,1,1
125169560,256,0,1
125189328,121,25,1
125210108,25,25,1
125229868,49,0,1
125248596,36,0,1
125267324,25,0,1
125286028,25,0,1
125304748,1,1,1
125322436,36,0,1
125341156,100,1,1
125360916,81,9,1
125379632,36,4,1
125398356,9,1,1
125416032,64,0,1
125434752,0,4,1
125452444,9,4,1
125470120,169,1,1
125489872,484,1,1
125509616,484,25,1
125530440,324,16,1
125551244,9,9,1
125568924,25,25,1
125588672,529,1,1
125608436,121,9,1
125628192,36,49,1
125647952,49,0,1
125666676,9,1,1
125684352,16,1,1
125703068,81,0,1
125721800,49,0,1
125740516,1,9,1
125758196,0,4,1
125775868,25,0,1
125794604,81,0,1
125813312,0,9,1
125830996,1,1,1
125848676,0,0,1
125866356,4,0,1
125884028,0,0,1
125901720,16,0,1
125920440,25,0,1
125939148,64,0,1
125957872,36,1,1
125976600,121,4,1
125996364,25,1,1
126015080,1,4,1
126032760,1,0,1
126050436,25,0,1
126069164,4,1,1
126086840,49,4,1
126105548,64,0,1
126124280,0,4,1
126141968,169,1,1
126161720,361,9,1
126181476,49,9,1
126200192,0,9,1
126217876,1,1,1
126235544,25,0,1
126254284,0,1,1
126271960,25,0,1
126290680,1,1,1
126308340,324,0,1
126328128,225,4,1
126347872,169,9,1
126367636,49,0,1
126386368,4,4,1
126404032,1,4,1
126421708,36,1,1
126440424,169,0,1
126460192,81,4,1
126478908,0,1,1
126496604,25,0,1
126515324,1,0,1
126532996,1,0,1
126550668,9,0,1
126568348,64,0,1
126587076,289,1,1
126606832,196,4,1
126626596,64,16,1
126646356,16,4,1
126665084,64,0,1
126683796,64,0,1
126702504,1,16,1
126721240,1,1,1
126738908,49,1,1
126757636,1,0,1
126775316,121,1,1
126795088,196,0,1
126814836,64,4,1
126833552,0,4,1
126851232,16,0,1
126869948,4,0,1
126887636,9,0,1
126905304,9,0,1
126923000,1,0,1
126940676,64,0,1
126959384,49,0,1
126978124,9,1,1
126995800,81,0,1
127014512,196,4,1
127034268,361,1,1
127054040,81,9,1
127072748,36,16,1
127092508,81,0,1
127111252,225,1,1
127131000,625,9,1
127150752,361,9,1
127170508,36,25,1
127190284,4,4,1
127207964,0,0,1
127225628,9,0,1
127243316,1,0,1
127261008,9,1,1
127278676,81,1,1
127297388,0,4,1
127315088,121,0,1
127334832,81,4,1
127353556,1,1,1
127371220,0,0,1
127388916,64,1,1
127407644,4,4,1
127425316,9,1,1
127442996,0,1,1
127460676,1,0,1
127478344,36,0,1
127497076,100,0,1
127516840,25,4,1
127535552,0,4,1
127553232,9,1,1
127570916,25,1,1
127589648,121,1,1
127609400,64,4,1
127628112,169,4,1
127647880,49,1,1
127666592,49,9,1
127685312,196,1,1
127705060,81,9,1
127723792,16,16,1
127743548,64,0,1
127762280,64,0,1
127781000,25,0,1
127799720,9,0,1
127817396,1,1,1
127835060,4,0,1
127852752,324,0,1
127872520,1296,0,1
127893316,289,36,1
127914120,4,49,1
127932840,1,0,1
127950512,4,0,1
127968184,49,1,1
127986916,16,9,1
128005632,1,4,1
128023316,1,1,1
128041012,100,0,1
128060764,625,9,1
128080512,49,9,1
128099228,100,16,1
128120040,9,0,1
128137712,100,1,1
128157476,256,1,1
128177232,121,9,1
128197004,81,9,1
128215716,4,4,1
128233384,25,4,1
128252124,100,0,1
128271876,16,9,1
128290588,36,1,1
128309312,49,0,1
128328032,169,1,1
128347796,196,1,1
128367552,4,4,1
128385232,196,1,1
128404996,144,16,1
128425796,4,4,1
128443476,0,0,1
128461160,36,1,1
128479872,0,1,1
128497556,144,0,1
128517320,49,1,1
128536044,4,4,1
128553716,121,0,1
128573480,729,9,1
128593244,324,25,1
128614032,49,36,1
128633788,100,1,1
128653564,81,1,1
128672280,49,9,1
128691000,4,1,1
128708676,16,0,1
128727392,25,0,1
128746116,81,0,1
128764824,144,0,1
128784596,289,0,1
128804344,256,16,1
128825148,9,36,1
128843884,81,4,1
128862604,25,1,1
128881316,441,1,1
128901072,1296,1,1
128921880,256,36,1
128942668,16,49,1
128962432,49,0,1
128981164,49,1,1
128999880,49,4,1
129018600,0,0,1
129036260,49,0,1
129055004,100,1,1
129074760,0,4,1
129092436,4,1,1
129110128,9,0,1
129127808,1,1,1
129145476,49,0,1
129164188,36,1,1
129182924,4,16,1
129201636,9,0,1
129219316,0,4,1
129236988,0,1,1
129254688,1,1,1
129272364,49,1,1
129291072,0,4,1
129308756,4,9,1
129326448,36,1,1
129345156,9,0,1
129362828,100,0,1
129382596,16,0,1
129401308,0,1,1
129419000,9,0,1
129436668,64,0,1
129455404,196,0,1
129475152,49,4,1
129493876,36,9,1
129512600,441,1,1
129532352,169,9,1
129552112,4,16,1
129570840,4,1,1
129588512,25,0,1
129607236,225,0,1
129626996,225,9,1
129646760,100,9,1
129666524,4,1,1
129684204,9,1,1
129701868,0,0,1
129719556,36,1,1
129738280,121,1,1
129758040,4,4,1
129775712,144,9,1
129795484,225,1,1
129815236,4,16,1
129833948,0,4,1
129851632,16,0,1
129870364,16,4,1
129889072,9,1,1
129906752,16,0,1
129925480,16,1,1
129944196,25,4,1
129962912,36,0,1
129981644,0,1,1
129999312,4,1,1
130016988,9,0,1
130034664,25,1,1
130053408,100,1,1
130073156,144,4,7
130092916,16,1,7
130111636,16,1,7
130130348,441,0,7
130150112,441,4,7
130169880,0,36,7
130188596,4,4,7
130206284,1,1,7
130223960,16,1,7
130242684,169,0,7
130262440,441,1,7
130282196,100,36,7
130303012,256,16,7
130323808,225,0,7
130343560,4,36,7
130362272,1,9,7
130379956,9,9,7
130397624,100,0,7
130417404,16,0,7
130436124,0,16,7
130454848,0,1,7
130472504,64,4,7
130491236,169,0,7
130511000,36,1,7
130529708,16,16,7
130549464,81,0,7
130568188,144,9,7
130587968,49,4,7
130606676,9,9,7
130624356,100,9,7
130644120,64,1,7
130662832,0,1,7
130680516,25,1,7
130699224,16,1,7
130717956,1,1,7
130735644,0,0,7
130753312,81,1,7
130772044,25,1,7
130790760,0,4,7
130808440,1,0,7
130826116,36,0,7
130844844,361,1,7
130864584,81,9,7
130883312,4,16,7
130902048,1,1,7
130919716,4,0,7
130937388,1,1,7
130955076,4,1,7
130972764,4,0,7
130990444,9,1,7
131008116,4,0,7
131025792,0,0,7
131043476,36,1,7
131062196,169,1,7
131081956,169,9,7
131101716,16,16,7
131121480,1,4,7
131139144,36,0,7
131157876,4,0,7
131175564,225,0,7
131195304,81,4,7
131214024,16,25,7
131233780,25,0,7
131252524,1,4,7
131270192,81,0,7
131288920,121,1,7
131308680,64,1,7
131327396,0,9,7
131345080,256,1,7
131364828,256,4,7
131384612,0,9,7
131402280,9,0,7
131419948,0,0,7
131437636,9,1,7
131455312,0,0,7
131472988,16,0,7
131491720,1,1,7
131509396,1,0,7
131527076,16,1,7
131545796,25,0,7
131564508,9,0,7
131582196,9,0,7
131599880,1,0,7
131617556,1,0,7
131635232,4,0,7
131652916,4,1,7
131670584,4,1,7
131688264,1,0,7
131705952,1,0,7
131723640,121,0,7
131743396,400,1,7
131763152,4,16,7
131781880,361,4,7
131801648,49,4,7
131820348,36,9,7
131839080,400,9,7
131858836,1681,0,7
131879624,441,100,7
131901476,4,49,7
131920196,16,0,7
131938916,9,9,7
131956596,0,1,7
131974272,25,4,7
131992996,9,1,7
132010676,1,0,7
132028348,1,4,7
132046032,1,0,7
132063716,1,0,7
132081384,1,0,7
132099068,1,0,7
132116760,0,1,7
132134436,0,0,7
132152116,0,1,7
132169796,1,0,7
132187488,0,0,7
132205148,0,0,7
132222828,0,0,7
132240508,0,0,7
132258192,0,0,7
132275864,0,0,7
132293540,1,0,7
