Timestamp (micros),Sensor1 (mV),Sensor2 (mV),Label
53868,9801,3600,3
56104,625,121,3
58236,81,144,3
60672,400,361,3
78364,324,121,3
96032,1,49,3
110576,169,169,3
129320,64,0,3
144924,1,49,3
160520,64,1,3
176112,1,25,3
191712,64,25,3
208348,9,4,3
222916,1,49,3
238512,9,1,3
253084,4,4,3
267632,16,4,3
283228,9,0,3
297796,4,9,3
312360,16,0,3
327960,1,0,3
342516,1,1,3
357068,4,0,3
371624,4,0,3
386196,0,4,3
400768,0,0,3
415316,0,9,3
429876,4,1,3
444448,1,1,3
459004,1,16,3
474596,0,1,3
489144,25,16,3
505792,16,9,3
521408,4,1,3
535956,49,4,3
551556,25,9,3
567156,1,9,3
581712,0,0,3
596284,25,1,3
611880,9,0,3
626440,36,1,3
642032,64,0,3
657632,9,0,3
672192,1,0,3
686748,1,0,3
701308,9,4,3
715872,4,25,3
731484,9,36,3
747084,16,36,3
763716,1,9,3
778276,0,1,3
792836,4,1,3
807384,0,0,3
821956,9,4,3
836512,9,9,3
851076,9,9,3
865640,4,81,3
881232,4,81,3
896832,49,16,3
913480,25,1,3
929080,36,1,3
944684,196,121,3
963396,100,225,3
982120,25,0,3
997716,25,100,3
1015388,361,0,3
1033068,2304,36,3
1052832,1849,64,3
1072592,400,16,3
1091308,1936,121,3
1112116,400,9,3
1129768,1028,289,3
1150524,29584,14641,3
1174488,7569,8993,3
1196332,3844,29241,3
1219220,100,400,3
1238972,324,3025,3
1259780,961,4624,3
1280568,81,16129,3
1301368,529,144,3
1321120,784,1681,3
1341928,784,25,3
1360664,196,900,3
1380424,1089,529,3
1401220,36,100,3
1419928,484,625,3
1439684,324,25,3
1458420,49,289,3
1477148,361,196,3
1496904,0,121,3
1514596,16129,15129,3
1538484,0,0,3
1554088,26273,19617,3
1578004,0,3201,3
1596724,5184,0,3
1615452,0,100,3
1633128,676,28224,3
1654956,21904,31684,3
1678864,16900,30976,3
1702788,5041,0,3
1721528,9604,0,3
1740244,2500,15376,3
1763104,7921,0,3
1781852,36,0,3
1798496,10404,8464,3
1821360,1764,2025,3
1843168,784,0,3
1860892,1369,17924,3
1883776,12996,14553,3
1907676,16641,2304,3
1930568,576,16129,3
1952416,169,100,3
1972172,16,484,3
1990900,400,100,3
2010660,1,225,3
2028328,441,484,3
2048104,225,4,3
2065788,81,225,3
2084496,225,81,3
2103228,0,0,3
2118808,0,20449,3
2138568,0,4761,3
2157292,64,1,3
2173944,5625,484,3
2194732,29584,2116,3
2217616,8100,289,3
2238416,225,9,3
2256108,169,169,3
2275868,64,4,3
2292492,0,0,3
2308088,19321,0,3
2327856,4489,25,3
2347616,1,400,3
2365304,225,1,3
2382952,0,1444,3
2401688,0,26244,3
2421452,5041,0,3
2440148,8464,28224,3
2463056,23409,7569,3
2485932,10816,30276,3
2509860,324,25281,3
2531696,5929,225,3
2552504,144,3025,3
2573288,0,14161,3
2593060,0,22801,3
2612828,16900,100,3
2634636,0,676,3
2652352,32433,23409,3
2676248,14852,0,3
2695996,18496,13225,3
2719940,2209,121,3
2740752,0,324,3
2758412,15617,6724,3
2781296,27889,6889,3
2804172,0,0,3
2819740,19472,0,3
2839512,12769,26569,3
2863452,0,17924,3
2883208,6889,0,3
2901940,4356,24336,3
2924808,121,23865,3
2946652,625,8464,3
2967444,3721,64,3
2987220,196,81,3
3005936,169,144,3
3025704,25,1,3
3042316,0,225,3
3060036,14089,17161,3
3083912,32761,31185,3
3107864,6084,28561,3
3130740,2916,81,3
3150500,144,1225,3
3171304,676,1369,3
3192080,0,26896,3
3211832,0,28900,3
3231608,15129,7569,3
3254492,13924,24649,3
3278412,1,8464,3
3297140,841,4,3
3314820,49,196,3
3333544,64,1,3
3350172,0,0,3
3365764,27225,0,3
3385544,5184,1,3
3404260,289,0,3
3421940,0,4,3
3437524,0,0,3
3453136,24649,0,3
3472892,5184,4,3
3491608,81,64,3
3509292,0,0,3
3524880,25600,0,3
3544652,6241,81,3
3564420,25,49,3
3582108,1,49,3
3598720,0,1024,3
3617464,24164,18496,3
3641368,0,0,3
3656972,20736,24164,3
3680900,28100,4993,3
3703752,7569,0,3
3722504,28224,121,3
3744328,20736,529,3
3766160,1936,1225,3
3788016,4,9,3
3803620,9,9,3
3819216,17161,0,3
3838960,121,0,3
3856644,20449,5041,3
3879508,400,0,3
3897216,1600,15617,3
3920100,15625,0,3
3939864,11236,49,3
3960628,15625,15376,3
3984572,0,6084,3
4003288,29241,121,3
4025144,441,49,3
4043856,729,1764,3
4064644,1600,784,3
4085444,36,196,3
4104172,784,841,3
4123948,400,9,3
4141612,121,484,3
4161368,441,225,3
4181140,4,100,3
4198824,256,324,3
4218560,27556,169,3
4240412,17408,1936,3
4263284,10816,3844,3
4286176,9,25,3
4302816,1,49,3
4319468,144,11449,3
4341280,3969,0,3
4360012,15129,6400,3
4382912,4356,484,3
4403704,0,100,3
4421380,16,0,3
4437988,0,784,3
4455672,0,25281,3
4475452,36,26244,3
4496244,3600,1,3
4514976,9,144,3
4532652,0,144,3
4550336,400,529,3
4570092,324,64,3
4588828,8100,9,3
4607512,4624,0,3
4626240,6724,0,3
4644976,5929,196,3
4665780,49,225,3
4684500,0,225,3
4702168,484,576,3
4721940,289,25,3
4740664,36,169,3
4759380,256,121,3
4779140,9,25,3
4795768,0,25921,3
4815544,21489,8464,3
4838392,400,1028,3
4859220,2304,0,3
4877944,3721,32761,3
4900804,289,0,3
4918512,196,21609,3
4940340,196,289,3
4960100,784,484,3
4979856,784,1,3
4997548,25,15625,3
5018304,24025,0,3
5038096,31808,784,3
5059928,24336,2601,3
5082816,64,64,3
5100496,81,81,3
5118204,16,0,3
5134804,0,26896,3
5154560,0,5776,3
5173308,16,100,3
5192028,25,0,3
5208656,36,36,3
5226332,0,0,3
5241920,22801,0,3
5261700,5329,36,3
5281460,16,144,3
5300168,25,16,3
5317868,64,144,3
5336556,0,784,3
5354224,30625,22201,3
5378168,0,31337,3
5397924,8464,0,3
5416668,3481,361,3
5437452,14641,144,3
5459292,0,5929,3
5477996,0,2704,3
5496712,19044,64,3
5517532,1600,1089,3
5539376,1521,1,3
5558096,441,625,3
5577864,289,36,3
5596580,9,100,3
5614248,0,0,3
5629844,24649,0,3
5649620,3721,49,3
5669392,225,64,3
5688092,100,16,3
5706828,4,9,3
5722420,0,0,3
5738000,25921,0,3
5757772,4900,9,3
5776476,0,289,3
5794152,29241,24025,3
5818080,0,21809,3
5837856,6889,0,3
5856580,3600,169,3
5877376,25,841,3
5896080,19881,225,3
5917920,32761,1369,3
5940804,4096,3600,3
5962652,324,144,3
5982416,25,121,3
6001132,441,529,3
6020892,324,25,3
6039624,36,225,3
6058340,289,169,3
6078100,9,16,3
6094712,0,64,3
6111352,26896,22801,3
6135296,0,29584,3
6155012,31185,14884,3
6178972,0,8649,3
6197688,0,1936,3
6216416,1936,1681,3
6238272,1,361,3
6255936,6241,1764,3
6277768,0,1521,3
6296484,9409,144,3
6317308,784,196,3
6337056,36,196,3
6355776,256,144,3
6375544,9,49,3
6392172,0,13689,3
6411924,23716,2704,3
6434804,0,23865,3
6454596,13456,2308,3
6477448,6561,0,3
6496152,4900,13924,3
6519060,9216,100,3
6539860,9,4,3
6555452,289,841,3
6575216,784,441,3
6594972,36,49,3
6612632,0,9,3
6628232,26244,22801,3
6652168,1,21609,3
6671932,6241,169,3
6692740,22801,36,3
6713556,3364,9,3
6732264,30564,1,3
6751992,23104,16260,3
6775932,0,29241,3
6795684,0,7225,3
6814408,784,121,3
6834160,484,1764,3
6854976,0,12996,3
6874724,10609,3844,3
6897608,441,9,3
6915292,3136,169,3
6936088,17161,1156,3
6958968,4624,100,3
6979780,144,4,3
6997460,81,121,3
7016180,49,4,3
7032796,23104,36,3
7053620,2585,5776,3
7075432,16900,0,3
7095200,2916,13456,3
7118100,1024,100,3
7138904,49,676,3
7157620,484,121,3
7177388,1,196,3
7195056,441,400,3
7214816,144,0,3
7232504,100,11664,3
7254328,729,0,3
7272040,2025,0,3
7290724,3633,19321,3
7313608,6793,0,3
7332320,10304,27332,3
7356244,18564,0,3
7376004,7921,0,3
7394736,1849,361,3
7415532,576,1,3
7433240,81,1849,3
7453000,484,2916,3
7473768,196,3136,3
7494568,169,3364,3
7515392,169,9,3
7533052,20164,4,3
7552800,30276,1764,3
7575692,529,1156,3
7596492,1764,961,3
7617292,81,1,3
7633940,64,256,3
7652664,441,256,3
7672420,64,1,3
7689052,0,0,3
7704644,17161,0,3
7724416,6889,121,3
7745224,289,4,3
7762900,1,0,3
7778488,0,0,3
7794084,24025,0,3
7813852,5184,16,3
7833620,36,100,3
7852348,16,9,3
7868972,0,0,3
7884568,26896,0,3
7904328,5184,1,3
7923064,225,9,3
7940752,0,2401,3
7959428,30976,12321,3
7983376,0,5828,3
8002076,9025,0,3
8020824,11193,1156,3
8043696,21809,12769,3
8067608,0,2916,3
8086340,289,36,3
8105060,1089,576,3
8125856,81,36,3
8143532,484,784,3
8163280,576,144,3
8183064,4,196,3
8200736,17689,3364,3
8223604,19145,10609,3
8247540,14884,3025,3
8270440,0,4761,3
8289144,0,20736,3
8308908,0,1444,3
8327600,19321,2916,3
8350512,0,3481,3
8369212,2153,21025,3
8392092,1424,32433,3
8414968,13456,0,3
8434744,6241,25,3
8454512,49,64,3
8472176,0,100,3
8489824,0,1225,3
8508596,25744,18496,3
8532492,0,0,3
8548084,21904,21809,3
8572008,27489,10417,3
8595920,7396,0,3
8614648,9409,0,3
8633380,256,1,3
8651068,49,100,3
8669796,25,36,3
8687460,17689,0,3
8707204,16,0,3
8723852,17161,529,3
8745700,4,144,3
8763372,9,4,3
8778996,0,6241,3
8797684,30976,3721,3
8820560,0,0,3
8836176,0,21481,3
8855928,7744,0,3
8874648,6241,361,3
8895444,961,64,3
8914180,16,0,3
8930828,36,64,3
8948500,12100,0,3
8968264,14400,0,3
8988008,16129,784,3
9009844,0,13988,3
9029580,24649,0,3
9049380,7921,81,3
9069124,23104,529,3
9090960,0,1849,3
9109684,12769,4356,3
9132580,25,25,3
9150248,4,25,3
9166924,100,0,3
9184568,0,25921,3
9204328,0,4356,3
9223060,1,144,3
9240752,9604,256,3
9261520,0,1521,3
9280256,7744,784,3
9301068,121,9,3
9318756,324,49,3
9337460,26896,25281,3
9361352,0,0,3
9376968,0,0,3
9392564,9604,0,3
9411292,8281,0,3
9430020,324,1,3
9447704,1,100,3
9465364,0,25921,3
9485116,24336,10201,3
9509044,0,19145,3
9528804,24964,0,3
9548568,729,9,3
9566276,100,0,3
9583920,0,28224,3
9603680,0,3969,3
9622416,121,576,3
9642188,1,9,3
9657780,0,676,3
9675444,32041,23104,3
9699372,0,30532,3
9719128,9025,0,3
9737860,3844,256,3
9758640,144,441,3
9778408,729,576,3
9798168,256,4,3
9815848,0,0,3
9831448,30276,0,3
9851224,5329,25,3
9870980,484,16,3
9889688,16,4,3
9906340,0,15129,3
9926100,8804,3481,3
9947912,0,0,3
9963524,21025,0,3
9983296,1296,29241,3
10006184,3633,25921,3
10030072,31329,4489,3
10054012,441,7056,2
10075872,324,1156,2
10097684,0,16641,2
10118484,25921,0,2
10139288,5329,729,2
10161120,144,324,2
10181940,25,121,2
10201696,361,361,2
10222496,225,16,2
10242268,36,121,2
10262028,225,144,2
10282820,9,25,2
10300500,100,144,2
10321312,64,1,2
10338984,16,49,2
10357688,81,36,2
10376420,4,9,2
10393052,0,0,2
10409680,24964,0,2
10430500,4761,4,2
10450268,225,25,2
10470016,25,0,2
10487692,0,16,2
10505376,1600,121,2
10527208,8649,256,2
10549064,1444,169,2
10570908,49,4,2
10588584,4,4,2
10605224,225,1,2
10623936,9604,0,2
10643676,324,0,2
10662412,24336,21489,2
10687360,18225,2585,2
10711288,10816,29241,2
10736252,3108,0,2
10756008,26244,31808,2
10780968,3481,11449,2
10804884,27889,10640,2
10829852,13924,0,2
10850660,4096,1,2
10870420,1,576,2
10889136,441,100,2
10909948,0,121,2
10928664,324,324,2
10949452,121,4,2
10968184,64,144,2
10987940,144,49,2
11007700,0,36,2
11025360,100,100,2
11046188,729,9,2
11064900,3249,1849,2
11087764,1681,12100,2
11111700,484,2809,2
11133548,169,0,2
11152244,289,0,2
11170968,3969,19321,2
11194900,11748,0,2
11215680,24964,0,2
11236488,5329,100,2
11258328,4,529,2
11277048,256,4,2
11295788,49,256,2
11315556,225,169,2
11336348,6724,16,2
11357112,23716,2025,2
11381072,0,1444,2
11400828,6241,324,2
11422672,2601,144,2
11444472,9025,0,2
11464212,12769,22801,2
11489208,1024,0,2
11508972,3364,0,2
11528712,5041,12996,2
11552660,289,2585,2
11574508,5476,1521,2
11597384,64,5476,2
11618172,1296,11664,2
11642084,2704,7396,2
11664964,2209,4356,2
11687832,6400,2401,2
11710748,81,1681,2
11731536,169,100,2
11752328,36,7921,2
11773132,3481,10816,2
11797064,2704,4225,2
11819928,14884,25600,2
11844916,100,16,2
11864652,400,4096,2
11886492,9,196,2
11905236,529,9,2
11923932,1024,16,2
11944748,1,3844,2
11964504,144,4761,2
11986336,225,0,2
12005060,25,961,2
12024812,484,1,2
12043536,0,361,2
12062264,0,2401,2
12082028,1,3721,2
12101784,225,169,2
12122580,0,100,2
12141308,1369,361,2
12163132,841,4624,2
12184980,441,5476,2
12206820,1369,1444,2
12229696,400,1936,2
12251552,900,64,2
12271308,3364,729,2
12293160,3249,64,2
12313940,1296,196,2
12335780,529,400,2
12356576,289,1156,2
12378428,841,4624,2
12400272,49,6561,2
12421052,324,3025,2
12442900,256,17161,2
12465768,676,24649,2
12488664,841,8464,2
12510524,36,121,2
12530272,100,0,2
12548980,64,529,2
12568744,1156,441,2
12590580,2601,625,2
12612428,729,169,2
12633232,0,361,2
12651944,1,25,2
12669636,729,4,2
12688340,4,4,2
12705000,361,25,2
12724748,64,144,2
12744512,324,784,2
12765320,4,4,2
12781940,144,676,2
12802744,100,841,2
12823536,225,196,2
12844356,25,9,2
12862028,81,49,2
12880736,0,324,2
12899468,25,64,2
12918184,1,256,2
12936908,225,36,2
12956680,1,256,2
12975388,289,16,2
12995140,49,81,2
13013844,324,1089,2
13035700,81,36,2
13054432,225,121,2
13075236,1,1,2
13091868,324,2025,2
13113728,169,625,2
13134508,121,81,2
13154264,9,3136,2
13174036,361,4761,2
13195856,4,9,2
13212500,841,625,2
13233308,784,25,2
13253060,324,36,2
13272828,0,64,2
13290512,49,64,2
13309240,324,225,2
13330032,1296,324,2
13351860,529,36,2
13371632,169,196,2
13392424,289,576,2
13413236,36,400,2
13432992,1,36,2
13450676,9,25,2
13468352,0,64,2
13486036,16,256,2
13505792,529,841,2
13526600,784,1296,2
13548420,484,2601,2
13570260,64,1156,2
13591076,225,196,2
13611872,484,49,2
13631632,64,100,2
13651384,36,1,2
13669064,100,196,2
13689872,36,121,2
13709636,64,25,2
13728340,225,0,2
13747072,100,121,2
13767872,81,64,2
13786596,225,36,2
13806356,484,4,2
13825076,784,196,2
13845880,441,324,2
13866680,64,169,2
13886432,36,144,2
13906196,196,81,2
13925952,169,289,2
13946760,49,64,2
13965484,64,289,2
13985224,1089,121,2
14007056,2500,1600,2
14029948,729,2209,2
14051792,0,400,2
14070504,0,100,2
14089248,100,1,2
14107956,36,144,2
14127712,36,121,2
14147460,121,36,2
14167228,49,25,2
14185952,16,64,2
14204664,49,16,2
14223396,3025,121,2
14245236,5776,625,2
14267080,1681,1,2
14286816,225,81,2
14306596,289,1,2
14325308,225,16,2
14345068,1681,81,2
14365876,36,25,2
14384596,484,169,2
14405392,676,676,2
14426192,64,196,2
14445956,144,9,2
14464672,25,81,2
14483380,36,36,2
14502120,16,4,2
14519792,576,100,2
14540592,256,9,2
14559316,25,81,2
14578048,25,121,2
14597796,0,4,2
14614424,529,256,2
14635232,576,289,2
14656036,196,25,2
14675788,441,144,2
14696596,36,49,2
14715308,0,100,2
14734036,256,1,2
14752740,169,4,2
14771480,0,4,2
14788124,4,25,2
14805796,0,36,2
14823480,49,64,2
14842204,144,4,2
14860928,16,169,2
14880676,36,625,2
14900436,144,1156,2
14922272,81,841,2
14942028,100,256,2
14962840,576,324,2
14983636,225,25,2
15003396,25,16,2
15022120,49,576,2
15041876,16,1681,2
15062676,9,324,2
15081392,144,1,2
15100116,100,121,2
15120924,1,225,2
15139628,64,196,2
15159404,441,256,2
15180200,144,36,2
15199960,25,121,2
15219708,1,144,2
15238440,64,25,2
15257148,225,25,2
15276920,324,16,2
15296680,36,0,2
15314364,225,4,2
15333068,169,16,2
15352828,81,0,2
15370528,324,0,2
15389236,484,36,2
15408992,121,25,2
15428764,4,36,2
15446444,169,9,2
15465144,144,0,2
15483868,4,25,2
15501548,36,169,2
15521320,361,64,2
15541068,324,36,2
15560840,0,100,2
15579560,169,289,2
15600352,784,225,2
15621156,900,25,2
15640912,196,196,2
15661716,49,25,2
15680428,16,9,2
15698124,64,0,2
15715792,36,4,2
15733472,36,9,2
15751140,196,16,2
15770912,225,64,2
15790672,9,36,2
15808344,49,16,2
15827084,0,9,2
15843728,9,1,2
15860352,4,1,2
15876996,144,289,2
15897796,64,169,2
15917556,196,1,2
15936272,256,1,2
15955000,49,100,2
15974760,49,100,2
15994516,9,16,2
16012192,36,1,2
16029872,0,169,2
16048592,25,400,2
16068348,25,361,2
16088116,169,256,2
16108912,256,225,2
16129712,169,225,2
16150504,576,25,2
16170264,36,256,2
16190028,1369,25,2
16210832,1024,64,2
16231636,1,4,2
16248268,784,144,2
16269064,400,16,2
16288840,256,4,2
16307556,841,36,2
16327316,144,4,2
16346036,0,9,2
16362680,64,81,2
16381392,4,100,2
16400116,36,0,2
16417800,9,1,2
16434444,121,1,2
16453172,64,25,2
16471872,0,64,2
16489560,9,0,2
16506192,16,256,2
16525952,0,196,2
16544668,49,1,2
16562364,81,0,2
16580032,225,49,2
16599792,0,0,2
16616424,289,9,2
16635156,100,16,2
16654920,49,0,2
16672592,4,0,2
16689240,4,9,2
16705880,4,169,2
16724596,49,196,2
16744344,0,49,2
16762048,36,4,2
16779704,49,64,2
16798436,16,25,2
16817144,144,25,2
16836924,4,4,2
16853552,25,0,2
16871228,9,16,2
16888924,16,0,2
16906596,81,36,2
16925316,36,256,2
16945068,9,100,2
16963804,9,36,2
16981476,49,100,2
17001232,25,64,2
17019960,16,9,2
17037652,0,49,2
17055320,9,121,2
17074044,49,36,2
17092760,25,9,2
17110440,1,4,2
17127072,100,196,2
17147868,81,441,2
17167636,1,256,2
17186360,1,0,2
17202996,9,1,2
17219640,4,0,2
17236284,25,144,2
17256040,9,25,2
17273712,4,169,2
17292440,9,49,2
17310128,9,16,2
17327784,36,256,2
17347532,1600,121,2
17369396,1089,225,2
17391232,289,4,2
17409952,169,100,2
17430760,36,16,2
17449468,25,9,2
17467152,576,9,2
17485880,1521,81,2
17506684,1089,441,2
17528508,1,169,2
17547224,121,1,2
17565960,49,16,2
17584684,49,0,2
17602352,9,25,2
17620040,4,1,2
17636688,25,49,2
17655392,196,25,2
17675152,324,25,2
17694920,324,25,2
17714672,0,4,2
17731312,121,0,2
17750040,0,16,2
17767720,4,0,2
17784356,225,81,2
17804112,81,64,2
17822844,1,4,2
17839480,16,4,2
17857156,121,49,2
17876908,196,1,2
17895652,361,9,2
17914356,289,81,2
17934124,1,196,2
17952844,64,169,2
17972600,121,16,2
17992356,256,16,2
18012112,64,25,2
18030852,4,9,2
18047484,9,1,2
18064124,25,1,2
18081800,9,49,2
18099484,0,1,2
18116124,9,16,2
18133804,256,441,2
18154600,100,961,2
18175400,16,400,2
18195160,1,49,2
18212824,64,0,2
18230516,49,16,2
18249248,1,4,2
18265880,16,9,2
18283560,36,64,2
18302276,0,36,2
18319952,16,0,2
18337636,0,49,2
18355328,121,25,2
18375080,64,16,2
18393804,16,1,2
18411472,0,9,2
18428124,25,0,2
18445788,144,49,2
18465556,16,121,2
18485312,9,169,2
18504032,324,1,2
18522748,16,9,2
18540436,196,1,2
18559164,25,0,2
18576832,4,36,2
18594516,9,1,2
18611156,36,25,2
18629888,36,81,2
18648600,0,0,2
18665240,1,0,2
18681876,1,64,2
18699560,4,25,2
18717232,4,9,2
18733872,4,169,2
18752600,25,36,2
18771316,9,9,2
18787944,16,25,2
18806688,1,1,2
18823324,16,0,2
18841008,1,36,2
18858688,16,25,2
18877396,1,1,2
18894044,64,25,2
18912756,36,0,2
18930440,4,49,2
18948116,16,49,2
18966840,16,49,2
18985564,9,1,2
19002196,1,64,2
19019884,0,25,2
19037560,4,4,2
19054196,36,25,2
19072916,289,16,2
19092688,144,64,2
19112444,16,4,2
19130112,1,100,2
19148840,4,9,2
19165476,64,36,2
19184200,0,1,2
19200844,169,25,2
19220608,36,9,2
19238280,16,0,2
19255960,25,4,2
19273628,36,144,2
19293396,100,256,2
19314208,144,9,2
19332912,729,64,2
19352672,361,81,2
19372440,0,4,2
19389080,196,1,2
19407784,100,0,2
19426520,25,4,2
19444196,9,81,2
19461868,121,4,2
19480596,81,100,2
19500364,25,25,2
19519076,4,0,2
19535724,25,1,2
19553400,196,81,2
19573168,1,16,2
19590840,121,49,2
19610584,0,121,2
19629320,0,25,2
19647004,9,0,2
19663636,36,81,2
19682364,9,64,2
19700036,100,25,2
19719800,81,36,2
19738512,9,25,2
19756200,0,0,2
19772844,9,49,2
19790520,64,4,2
19808192,16,16,2
19826916,4,0,2
19843560,81,1,2
19861228,256,0,2
19879956,64,16,2
19898676,4,16,2
19916352,0,4,2
19932996,36,9,2
19950672,81,9,2
19968356,25,4,2
19986040,25,1,2
20003728,0,1,2
20020356,9,100,2
20039080,1,49,2
20056756,16,1,5
20074432,0,0,5
20091096,1,49,5
20108760,4,49,5
20126428,16,1,5
20144108,0,0,5
20160748,16,289,5
20180524,36,324,5
20200272,0,64,5
20217972,4,576,5
20236684,81,169,5
20256432,4,9,5
20273064,36,0,5
20290756,4,16,5
20308444,25,4,5
20326108,0,25,5
20343792,25,0,5
20361480,64,0,5
20379156,400,81,5
20398924,64,121,5
20418684,36,4,5
20436364,81,9,5
20454044,36,16,5
20472748,4,1,5
20489400,4,81,5
20507068,49,25,5
20525800,100,25,5
20545560,4,16,5
20563236,256,4,5
20581948,1296,4,5
20601712,324,4,5
20620432,0,0,5
20637084,9,9,5
20653724,0,1,5
20670352,49,0,5
20688040,9,4,5
20704680,4,9,5
20721320,36,0,5
20738984,49,9,5
20756680,121,16,5
20776432,9,4,5
20793076,16,1,5
20810756,16,49,5
20829476,256,0,5
20848200,484,25,5
20867956,16,4,5
20885656,4,1,5
20902284,4,1,5
20918904,16,25,5
20937624,49,16,5
20956352,9,16,5
20974032,1,25,5
20991716,4,1,5
21008348,0,4,5
21025000,4,16,5
21042672,64,9,5
21060352,81,4,5
21078036,100,0,5
21096768,49,9,5
21114424,121,36,5
21134196,400,36,5
21153964,16,25,5
21172672,0,16,5
21190356,9,36,5
21208028,225,4,5
21226748,121,16,5
21246508,36,0,5
21264204,1,0,5
21280848,36,1,5
21298516,144,121,5
21319312,400,0,5
21338020,441,484,5
21358832,0,576,5
21377556,484,625,5
21398348,324,361,5
21419160,289,64,5
21438908,1681,2916,5
21461800,3249,3364,5
21484672,676,0,5
21503384,1444,729,5
21525224,1764,289,5
21547084,3600,0,5
21566812,0,529,5
21585504,25600,23409,5
21610468,6400,2704,5
21633376,6400,6288,5
21656248,4096,19044,5
21680188,0,1764,5
21699936,28928,3844,5
21723836,15876,0,5
21744652,0,21609,5
21765452,0,7396,5
21785208,400,441,5
21805996,2401,121,5
21827860,196,324,5
21848656,784,529,5
21869452,100,16,5
21889216,256,400,5
21910024,225,49,5
21929780,16,144,5
21949556,225,169,5
21970336,25,9,5
21988020,81,144,5
22007776,121,16,5
22027548,4,49,5
22045216,100,49,5
22064984,16,4,5
22082664,49,49,5
22101384,3136,0,5
22121132,1369,0,5
22140892,0,5625,5
22160660,13456,9025,5
22184576,169,513,5
22205360,9,28561,5
22226184,5476,1,5
22245940,81,16,5
22264652,289,676,5
22285452,625,324,5
22306256,49,16,5
22324976,169,196,5
22345780,100,9,5
22364504,4,81,5
22382168,1225,121,5
22404004,7396,441,5
22425864,1936,36,5
22446660,64,4,5
22464336,25,49,5
22483056,16,4,5
22500708,0,225,5
22519468,12569,16129,5
22544404,0,0,5
22561032,7744,0,5
22580812,0,2401,5
22600584,18769,2601,5
22624508,1296,3969,5
22647368,729,2025,5
22669204,144,225,5
22690032,0,0,5
22706644,0,0,5
22723280,8464,0,5
22743056,4225,625,5
22764896,841,9,5
22783620,169,256,5
22804416,289,100,5
22825228,4,100,5
22843936,196,196,5
22864736,64,0,5
22882428,36,121,5
22902180,121,36,5
22921944,1,25,5
22939628,100,0,5
22958352,256,30976,5
22981204,1764,0,5
23000964,361,25921,5
23023864,6724,4,5
23043620,1,9,5
23060256,729,900,5
23081052,6400,100,5
23102896,676,9,5
23121620,1156,64,5
23142428,169,25,5
23162188,4,49,5
23179856,64,36,5
23198596,0,0,5
23215188,0,10304,5
23236004,0,0,5
23252644,6084,21904,5
23276564,4624,3025,5
23299468,0,11236,5
23320252,26896,25281,5
23345220,3249,49,5
23366032,256,324,5
23386824,64,16,5
23405532,144,289,5
23426336,225,64,5
23446104,1,49,5
23463776,121,100,5
23484588,25,1,5
23502256,49,100,5
23522020,81,16,5
23540748,1,25,5
23558408,32400,121,5
23581300,31808,4225,5
23605188,16641,4225,5
23629132,0,0,5
23645772,11812,20548,5
23670724,26880,7696,5
23694652,3136,0,5
23714412,6400,36,5
23735208,100,196,5
23756020,121,16,5
23775784,1089,100,5
23797596,5184,0,5
23817392,17689,0,5
23838176,784,0,5
23856888,0,12864,5
23877708,0,27889,5
23898500,1296,1,5
23918244,4225,0,5
23937996,961,32400,5
23960904,1225,9,5
23980656,1764,256,5
24002488,4,100,5
24021216,256,196,5
24042004,64,0,5
24059704,49,121,5
24079464,121,36,5
24099224,0,16,5
24116916,49,0,5
24134560,0,24025,5
24155368,0,5929,5
24175144,81,9,5
24192816,81,9,5
24210504,36,100,5
24230264,144,100,5
24251052,16,4,5
24268736,25,36,5
24287468,0,17161,5
24308256,8804,12305,5
24332164,16384,21904,5
24357152,0,4225,5
24376896,0,15376,5
24397696,441,16129,5
24420596,784,2116,5
24442408,900,7056,5
24464252,2209,49,5
24485060,36,256,5
24504808,841,1156,5
24526664,729,0,5
24545372,529,30532,5
24568244,22801,12569,5
24593196,5184,0,5
24612980,6400,0,5
24632728,1,484,5
24651448,289,36,5
24671212,1,100,5
24689940,196,144,5
24710740,49,0,5
24728420,36,100,5
24748188,1849,4,5
24767932,3600,25,5
24788748,256,361,5
24809552,9,0,5
24826168,0,0,5
24842800,21316,0,5
24863624,4489,9,5
24883392,16,225,5
24903140,81,0,5
24920820,25,144,5
24940576,169,100,5
24961380,9,4,5
24978016,4225,9,5
24997768,9604,576,5
25019616,1764,676,5
25041456,25,25,5
25060184,25,1,5
25077876,49,961,5
25097640,1369,3481,5
25120484,1849,0,5
25140248,676,14884,5
25163148,1936,1,5
25182904,9,196,5
25201616,49,9,5
25219304,100,225,5
25240092,196,81,5
25259864,1,25,5
25277560,2116,0,5
25297288,1444,32144,5
25321200,3136,0,5
25340976,4489,121,5
25362824,1,361,5
25381540,169,1,5
25400248,49,225,5
25420016,361,196,5
25440808,36,4,5
25458512,100,144,5
25479304,100,16,5
25499056,1,49,5
25516744,100,49,5
25536496,4,4,5
25553152,7744,0,5
25572880,7056,0,5
25592636,28900,31684,5
25617600,0,1369,5
25637372,0,14400,5
25658184,729,144,5
25678992,36,4,5
25696672,13689,256,5
25719528,0,2116,5
25739292,8649,1444,5
25762176,25,0,5
25779856,81,16,5
25798576,4,36,5
25816276,100,100,5
25837084,36,576,5
25856824,7744,3600,5
25879696,9604,4356,5
25902592,400,4,5
25921308,196,169,5
25942128,0,1,5
25958760,0,1,5
25975396,4,9,5
25992008,10404,13924,5
26016980,17408,27489,5
26041928,15876,21609,5
26066884,6288,8993,5
26089768,22500,0,5
26110572,3721,16,5
26131372,81,1849,5
26152168,529,2601,5
26174008,144,121,5
26194820,0,100,5
26213504,21809,14884,5
26238492,0,4356,5
26258248,0,5184,5
26278020,400,529,5
26298820,1,25,5
26316500,49,81,5
26335196,16641,225,5
26358100,0,3481,5
26377848,12769,1681,5
26401768,16,16,5
26420492,256,81,5
26440256,0,64,5
26457940,225,225,5
26478744,121,9,5
26497456,16,100,5
26517216,121,64,5
26536980,4,16,5
26554640,0,144,5
26573376,0,20736,5
26594176,4489,17161,5
26618080,32761,0,5
26638884,5184,0,5
26658648,6241,676,5
26680496,625,1024,5
26702344,169,100,5
26723124,625,1156,5
26744976,19044,0,5
26765764,5041,1028,5
26788656,6724,81,5
26809456,676,25,5
26829208,625,256,5
26850012,144,9,5
26868736,49,256,5
26888504,289,169,5
26909304,9,25,5
26926980,121,144,5
26947780,81,4,5
26965464,16,49,5
26984168,1600,0,5
27003940,3025,0,5
27023712,1444,7921,5
27046564,4689,2500,5
27069432,0,17956,5
27090260,676,1,5
27108980,361,64,5
27128740,1,1,5
27145380,36,81,5
27164104,0,30276,5
27184896,26880,0,5
27205692,1296,32761,5
27229612,5625,169,5
27251456,81,169,5
27271220,121,64,5
27290976,36,0,5
27308664,25,49,5
27327384,49,16,5
27346100,0,16,5
27363788,0,225,5
27382484,29584,23716,5
27407448,0,19472,5
27428236,7056,0,5
27448016,3844,100,5
27469864,9,900,5
27488576,1024,484,5
27510412,144,9,5
27529136,289,529,5
27549940,361,81,5
27569700,9,169,5
27588408,256,196,5
27609220,49,9,5
27626908,100,196,5
27647704,144,36,5
27667464,4,64,5
27685140,100,64,5
27704900,16,0,5
27722580,13689,0,5
27743388,9,21904,5
27764184,0,10089,5
27784968,3721,0,5
27804728,27225,1369,5
27828664,49,49,5
27847384,9,9,5
27864024,1225,1369,5
27886896,3600,6561,5
27909776,289,1444,5
27931588,169,0,5
27950336,256,18697,5
27973220,17424,0,5
27993988,10089,4624,5
28017932,0,6084,5
28037688,0,2209,5
28057464,841,784,5
28078268,1,81,5
28095940,256,361,5
28116740,196,25,5
28136500,1764,625,5
28158348,1296,1,5
28178100,4,49,5
28195772,169,144,5
28216576,49,0,5
28234268,49,121,5
28253988,0,196,5
28272748,17924,19044,5
28297676,30276,28713,5
28322652,5929,27225,5
28346572,7905,0,5
28366328,19044,6288,5
28390252,2209,16,5
28411064,1,1024,5
28430804,1225,400,5
28452656,16,3721,5
28473444,1849,24964,5
28497356,5476,19044,5
28521280,24025,4356,5
28545204,0,0,5
28561852,8804,26176,5
28585768,31808,3201,5
28609688,3025,0,5
28629456,7744,1,5
28649212,16,225,5
28668988,49,4,5
28686660,49,121,5
28706420,121,49,5
28726176,1,16,5
28743860,64,64,5
28762576,0,0,5
28779200,24649,0,5
28800020,5776,36,5
28820824,49,49,5
28839540,1,49,5
28857212,81,81,5
28875940,49,9,5
28893620,1,16,5
28911272,0,256,5
28929988,29584,23716,5
28954972,0,19472,5
28975764,5929,0,5
28995532,4489,81,5
29016344,4,900,5
29035056,1024,529,5
29056900,144,16,5
29076660,289,484,5
29097464,361,81,5
29117216,4,144,5
29135952,256,169,5
29156740,36,9,5
29174416,100,169,5
29195212,121,25,5
29214988,9,64,5
29232680,81,0,5
29250328,0,23716,5
29271156,0,3844,5
29290908,25600,16,5
29312712,0,26244,5
29333520,25668,10201,5
29358484,13689,3364,5
29382396,13689,484,5
29405284,3249,0,5
29425044,11449,0,5
29445848,3481,144,5
29467700,361,0,5
29486420,0,9,5
29503060,20164,324,5
29525912,6825,2304,5
29548812,11449,2500,5
29572748,0,324,5
29591452,32433,4761,5
29615364,0,4160,5
29635120,5041,0,5
29654896,6400,49,5
29675708,16,16,5
29694416,64,484,5
29714164,529,400,5
29734980,100,0,5
29753700,100,225,5
29774500,225,36,5
29794252,0,49,5
29811916,0,961,5
29830676,21028,16900,5
29855592,0,0,5
29872268,3249,16384,5
29896164,21316,0,5
29916960,225,32400,5
29939864,9604,9,5
29959624,49,0,5
29977296,121,361,5
29998096,256,121,5
30018912,9,16,5
30036580,81,81,5
30055296,36,0,2
30072988,16,49,2
30091712,841,0,2
30110408,25921,0,2
30131224,0,22500,2
30152028,10000,0,2
30172804,0,10640,2
30193600,0,21316,2
30214408,16900,1600,2
30238344,9,324,2
30257052,25,1,2
30274748,16,100,2
30294488,121,49,2
30314260,1,4,2
30330896,0,0,2
30347532,21904,0,2
30368324,5184,49,2
30389128,4,196,2
30407856,49,25,2
30426580,81,169,2
30446344,169,64,2
30466104,0,25,2
30483792,81,81,2
30502496,14641,27889,2
30527440,0,0,2
30544088,529,4352,2
30565940,12769,3617,2
30589832,20164,28713,2
30614804,15625,31185,2
30639784,361,19321,2
30662676,36,3364,2
30683464,676,9,2
30702184,400,441,2
30722980,15625,9,2
30743796,14641,576,2
30766648,1024,729,2
30788484,900,23104,2
30811364,16,0,2
30829064,729,0,2
30847768,900,20164,2
30870652,12100,5776,2
30894580,0,0,2
30911208,1521,4096,2
30934100,2209,32041,2
30958004,7225,1936,2
30980884,21316,11664,2
31005868,289,17161,2
31028744,1,28224,2
31049536,2601,1,2
31069308,676,0,2
31088016,3721,361,2
31109864,4356,225,2
31131696,8836,169,2
31153520,12321,121,2
31176404,0,7744,2
31196168,7225,2500,2
31219044,2209,4624,2
31241932,8100,3844,2
31264824,4096,1444,2
31287708,0,289,2
31306420,100,256,2
31327216,1521,1296,2
31350112,121,225,2
31370904,1369,256,2
31392736,1024,196,2
31414576,841,961,2
31435368,121,144,2
31456176,36,9,2
31473856,169,1369,2
31495716,4,25,2
31513376,64,841,2
31533136,1024,225,2
31554984,289,289,2
31575780,9,2916,2
31595548,49,1089,2
31616332,1024,1225,2
31639204,324,8100,2
31661064,6889,676,2
31682904,841,576,2
31703700,4,3600,2
31723452,36,1,2
31741144,1089,16,2
31761944,9,225,2
31780660,961,225,2
31801460,2601,100,2
31823308,100,289,2
31844112,256,36,2
31863888,9,1,2
31880524,64,36,2
31899224,361,49,2
31918968,1936,729,2
31940832,3025,576,2
31962664,1156,361,2
31984508,625,1,2
32003228,1600,196,2
32025076,1600,225,2
32046908,0,121,2
32065632,36,25,2
32084340,4,16,2
32102024,324,81,2
32121780,225,64,2
32141560,9,289,2
32160276,1,324,2
32178988,81,16,2
32197704,169,81,2
32217468,4,225,2
32236180,289,225,2
32256972,324,0,2
32275708,25,81,2
32294428,0,1444,2
32314176,9,1936,2
32333948,16,1764,2
32354760,25,1444,2
32375544,169,324,2
32396356,484,144,2
32417156,16,841,2
32436916,25,3249,2
32457696,400,1225,2
32479544,1521,1024,2
32502436,36,0,2
32520108,484,2025,2
32541952,400,1936,2
32563784,256,400,2
32584588,9,16,2
32602276,1,361,2
32620984,4,1024,2
32640756,4,49,2
32658420,484,144,2
32679240,225,1,2
32697944,9,2401,2
32717676,1,4356,2
32737468,25,576,2
32757224,36,529,2
32776992,100,676,2
32797796,81,900,2
32817540,16,36,2
32836264,256,400,2
32857060,900,100,2
32877880,196,1,2
32896580,36,1521,2
32917380,0,529,2
32936116,49,225,2
32955864,144,324,2
32976660,9,36,2
32994344,225,36,2
33014116,196,100,2
33034900,441,169,2
33055692,441,16,2
33075468,121,0,2
33094180,81,324,2
33113952,16,64,2
33132664,64,225,2
33152428,25,256,2
33172184,289,324,2
33192972,324,324,2
33213788,64,1,2
33231456,4,36,2
33249132,144,16,2
33268912,400,784,2
33289704,4,2500,2
33309460,256,169,2
33330284,400,36,2
33350040,16,4,2
33367712,100,0,2
33386408,169,1369,2
33408272,0,1764,2
33428028,225,16,2
33447788,361,81,2
33467564,16,324,2
33487320,324,484,2
33508120,400,324,2
33528912,64,289,2
33548684,64,64,2
33567396,1,16,2
33585068,81,121,2
33604844,25,9,2
33622504,100,169,2
33643312,64,81,2
33662040,9,36,2
33679724,256,121,2
33700520,361,64,2
33720272,9,169,2
33739004,36,1369,2
33759784,121,2500,2
33781640,16,625,2
33801408,0,676,2
33820104,0,1296,2
33839872,49,169,2
33859640,144,16,2
33879404,4,4,2
33896036,9,361,2
33914736,169,144,2
33935556,25,676,2
33955296,25,1089,2
33976092,121,361,2
33996908,81,1089,2
34017700,9,841,2
34036424,100,1225,2
34058268,4,2601,2
34078048,400,9,2
34096748,4,1681,2
34116504,144,1024,2
34138352,49,529,2
34158116,121,2500,2
34179944,25,2601,2
34200756,81,484,2
34220512,81,1,2
34238184,441,225,2
34259000,36,9,2
34276680,49,484,2
34296420,64,729,2
34316188,64,64,2
34334920,256,1,2
34353620,64,1,2
34371300,16,0,2
34388984,0,144,2
34407712,1,49,2
34425396,49,81,2
34444108,16,0,2
34461800,1,4,2
34478428,169,3364,2
34500268,324,6084,2
34522128,625,1444,2
34543952,289,441,2
34564744,9,225,2
34583464,36,0,2
34601156,0,0,2
34617784,484,784,2
34638584,144,484,2
34659400,36,289,2
34679164,25,144,2
34698916,36,0,2
34716592,289,49,2
34736340,441,16,2
34756120,121,289,2
34776912,144,1,2
34795640,121,4,2
34814356,144,1,2
34833072,121,0,2
34851772,0,64,2
34869476,0,100,2
34888188,100,256,2
34908996,361,484,2
34929800,361,9,2
34948532,1,144,2
34967228,121,9,2
34985940,0,49,2
35003644,64,16,2
35022364,0,1,2
35038984,36,361,2
35058772,4,1,2
35075408,64,144,2
35095160,36,81,2
35113864,100,49,2
35133640,25,196,2
35153376,0,225,2
35172108,1,49,2
35189800,0,81,2
35207460,64,100,2
35227236,49,225,2
35246988,36,625,2
35266756,36,1024,2
35287544,0,441,2
35306272,25,400,2
35326036,169,1,2
35344760,9,0,2
35361400,49,4,2
35379064,81,100,2
35398848,0,1,2
35415480,0,100,2
35434192,25,225,2
35453956,25,9,2
35471640,9,9,2
35488276,324,16,2
35508036,784,0,2
35526752,36,196,2
35546524,196,25,2
35566272,64,36,2
35584984,16,16,2
35603724,144,1,2
35622440,36,4,2
35640116,0,0,2
35656756,81,576,2
35676512,576,529,2
35697312,361,9,2
35716020,9,169,2
35734748,4,1089,2
35754512,1,36,2
35772188,144,169,2
35792992,289,1369,2
35814828,64,529,2
35834588,36,64,2
35853308,9,64,2
35871000,4,36,2
35888672,16,225,2
35908428,0,121,2
35927156,1,1,2
35943796,49,729,2
35963548,49,441,2
35983308,25,9,2
36000996,64,4,2
36018664,0,361,2
36037408,25,16,2
36056132,25,36,2
36074844,0,361,2
36093552,0,9,2
36110184,16,4,2
36127872,49,256,2
36147632,81,484,2
36167396,100,100,2
36188200,81,64,2
36206928,16,16,2
36225632,4,400,2
36244352,9,100,2
36263088,1,9,2
36279724,0,36,2
36297380,225,121,2
36318184,400,196,2
36338988,64,484,2
36358756,25,196,2
36378516,49,121,2
36398272,9,25,2
36415956,1,841,2
36434680,64,841,2
36454432,121,81,2
36474192,25,100,2
36493948,9,100,2
36512672,1,25,2
36530360,4,25,2
36548028,16,484,2
36567796,25,324,2
36587564,81,196,2
36607320,4,25,2
36624992,1,1225,2
36644756,144,729,2
36665564,49,9,2
36683232,49,144,2
36702988,36,289,2
36722756,1,81,2
36740440,16,16,2
36759160,0,1,2
36775792,49,256,2
36795556,169,441,2
36816344,49,361,2
36836108,0,441,2
36854840,4,1,2
36871472,64,9,2
36889152,100,4,2
36907864,361,25,2
36927644,36,36,2
36946352,121,169,2
36967148,169,49,2
36986912,36,1936,2
37007716,169,3136,2
37029548,100,729,2
37050352,81,1,2
37068028,144,36,2
37087788,25,1,2
37105468,100,1,2
37124200,25,4,2
37141880,4,100,2
37160596,100,9,2
37179308,169,49,2
37199072,1,1,2
37215712,25,676,2
37235456,16,289,2
37255240,4,169,2
37273956,9,25,2
37291632,9,1,2
37308268,144,1,2
37326996,1,49,2
37344684,16,289,2
37364436,9,100,2
37383148,81,0,2
37400848,64,100,2
37420592,0,144,2
37439316,36,169,2
37459088,4,4,2
37475716,81,400,2
37495468,100,361,2
37516264,4,0,2
37532912,1,100,2
37551644,9,361,2
37570356,36,441,2
37590124,36,121,2
37609876,16,49,2
37628600,9,100,2
37647292,1,1225,2
37667068,100,1600,2
37688916,529,16,2
37708680,256,25,2
37728436,0,0,2
37745068,36,36,2
37763800,1,36,2
37781468,16,64,2
37800200,16,25,2
37818924,4,121,2
37837640,16,196,2
37857400,1,81,2
37875084,25,1,2
37892756,16,36,2
37911460,9,36,2
37929160,9,25,2
37946840,36,16,2
37965552,1,9,2
37982188,25,64,2
38000924,4,100,2
38019632,4,49,2
38037316,4,729,2
38056040,16,4,2
38073720,25,100,2
38093480,0,4,2
38110116,4,1,2
38126756,64,0,2
38144428,196,576,2
38165240,169,400,2
38186040,4,0,2
38202680,9,25,2
38220356,25,0,2
38238036,9,16,2
38255724,64,324,2
38275476,225,49,2
38295240,36,25,2
38313944,9,9,2
38330588,0,0,2
38347228,16,64,2
38365948,4,100,2
38384684,16,256,2
38404444,4,49,2
38422116,16,1,2
38439804,9,36,2
38457480,100,16,2
38477224,100,25,2
38497000,225,100,2
38517800,484,64,2
38537564,144,256,2
38558356,4,16,2
38576036,4,81,2
38593720,16,9,2
38611400,9,64,2
38629080,4,1,2
38645696,49,289,2
38665484,16,121,2
38685236,36,4,2
38702912,0,0,2
38719552,9,0,2
38736200,121,576,2
38756988,100,361,2
38777780,25,4,2
38795484,25,225,2
38815244,64,100,2
38835000,0,0,2
38851640,16,9,2
38869316,25,1,2
38886996,36,25,2
38905708,9,225,2
38924436,81,144,2
38944188,25,49,2
38962916,9,100,2
38981628,1,16,2
38999320,0,16,2
39017008,49,0,2
39034672,49,625,2
39054440,1,1024,2
39074200,100,121,2
39094984,49,361,2
39114736,16,2704,2
39135548,64,5041,2
39156348,529,784,2
39177148,529,9,2
39195876,441,49,2
39215644,324,4,2
39234348,100,100,2
39255164,0,36,2
39272840,9,36,2
39290520,16,25,2
39309228,36,16,2
39327960,9,4,2
39344596,49,100,2
39364356,4,256,2
39383072,25,169,2
39402848,1,49,2
39420512,0,0,2
39437160,169,16,2
39456924,121,4,2
39475636,4,196,2
39494356,1,49,2
39512028,0,16,2
39529728,36,1,2
39547388,49,36,2
39566104,0,16,2
39583792,81,16,2
39602516,36,4,2
39620192,0,9,2
39636836,64,121,2
39656596,16,4,2
39674292,1,25,2
39691960,16,64,2
39710668,4,0,2
39727320,49,16,2
39746032,1,9,2
39762676,0,676,2
39781408,36,625,2
39801164,64,25,2
39819876,4,4,2
39836512,36,441,2
39856276,25,100,2
39876036,49,0,2
39893716,1,49,2
39911392,9,100,2
39930120,0,1,2
39946752,49,25,2
39965476,49,4,2
39983152,49,81,2
40001880,9,81,2
40019544,0,49,2
40037240,25,144,2
40056996,4,1,4
40073636,25,1,4
40091312,9,1,4
40107944,0,36,4
40125632,1,169,4
40144352,36,196,4
40164104,16,25,4
40182832,16,16,4
40201564,25,64,4
40220276,4,4,4
40236916,100,64,4
40256680,4,16,4
40274360,196,9,4
40293084,36,4,4
40310740,1,256,4
40329480,0,81,4
40347156,121,4,4
40365864,100,576,4
40386676,25,1024,4
40407472,225,0,4
40426184,100,144,4
40447004,1,16,4
40464676,1,169,4
40483400,1,25,4
40501076,16,25,4
40519804,25,0,4
40537476,121,36,4
40557236,16,25,4
40575956,4,144,4
40594684,1,16,4
40612352,49,36,4
40631080,36,0,4
40648760,4,4,4
40665400,4,1,4
40682024,0,64,4
40699716,4,4,4
40716364,144,25,4
40736116,49,441,4
40755872,0,100,4
40774584,81,49,4
40793328,81,0,4
40810988,0,4,4
40827636,9,1,4
40844272,4,196,4
40863004,100,144,4
40883788,100,9,4
40902516,25,4,4
40920208,4,1,4
40936848,25,9,4
40954516,64,16,4
40973228,169,64,4
40993000,1,100,4
41011708,4,144,4
41030440,1,169,4
41049164,64,9,4
41066840,1,81,4
41084512,0,9,4
41101144,9,49,4
41118840,4,36,4
41136528,1,49,4
41154200,4,225,4
41172896,5776,484,4
41194756,1225,25,4
41215544,12100,576,4
41238412,12100,2304,4
41262336,19600,625,4
41285232,1521,400,4
41307044,513,9,4
41325796,8804,9801,4
41348656,0,10000,4
41369464,5476,1024,4
41392332,15129,1521,4
41416252,18769,1156,4
41440188,1369,1024,4
41463068,121,2304,4
41484904,13689,2809,4
41508784,10089,49,4
41530648,26569,0,4
41551456,784,0,4
41570164,23104,32400,4
41595132,23716,2025,4
41619040,29929,19145,4
41644020,19600,10640,4
41668956,256,0,4
41687696,32400,0,4
41708484,15689,576,4
41731364,0,4,4
41748032,10609,1764,4
41771908,0,1600,4
41791692,25744,2601,4
41815604,0,8464,4
41835372,49,196,4
41855144,1296,196,4
41877000,64,16,4
41895700,36,784,4
41915456,12996,256,4
41938320,17408,7905,4
41962244,22500,0,4
41983052,3249,289,4
42004900,0,441,4
42023608,14089,6724,4
42047532,27889,5041,4
42071476,0,21904,4
42092248,0,3025,4
42112024,841,7396,4
42133864,625,324,4
42154660,1156,121,4
42176484,3600,16,4
42197292,13689,169,4
42220168,0,3108,4
42239912,25281,0,4
42260744,23409,0,4
42281540,24025,16384,4
42306504,441,169,4
42327316,0,3721,4
42347044,0,16641,4
42367852,18496,0,4
42388652,121,2601,4
42410480,0,3249,4
42430232,31684,12100,4
42455216,64,9,4
42472884,3600,1,4
42492660,49,1,4
42510320,36,4900,4
42531132,16129,1024,4
42555028,16833,4761,4
42579000,0,16384,4
42599792,19044,17689,4
42624728,0,81,4
42642420,17985,1600,4
42666332,0,529,4
42685040,4900,3025,4
42707932,0,24964,4
42728744,21025,26896,4
42753696,784,361,4
42774496,1,4,4
42791148,625,169,4
42811936,9,64,4
42829616,361,20164,4
42852488,25,0,4
42870164,1600,5929,4
42893052,3136,100,4
42914912,64,36,4
42933620,49,256,4
42953368,289,225,4
42974172,49,9,4
42991868,81,121,4
43011616,576,9,4
43030336,676,4,4
43049040,0,1156,4
43068840,20249,484,4
43091684,30276,1936,4
43115620,64,1849,4
43136408,16,100,4
43156180,4,196,4
43174892,289,225,4
43195700,64,1,4
43213380,81,169,4
43233144,144,49,4
43252904,0,36,4
43270580,81,64,4
43289296,16,0,4
43306960,0,6561,4
43326724,31329,3721,4
43350644,0,0,4
43367280,0,22673,4
43388120,0,10404,4
43408900,19600,4,4
43429708,676,4761,4
43451548,1089,6889,4
43474408,2916,961,4
43496260,1024,16,4
43517080,25,0,4
43534732,324,0,4
43553444,5776,22801,4
43577392,9216,10000,4
43601292,23409,1296,4
43625204,22201,21904,4
43650168,3108,0,4
43669924,21609,0,4
43690732,2916,144,4
43712588,121,625,4
43733388,400,9,4
43752096,81,361,4
43771836,484,256,4
43792660,16,36,4
43811380,196,225,4
43832180,144,16,4
43851948,16,121,4
43871696,144,81,4
43891460,4,16,4
43909156,529,64,4
43928908,3600,1369,4
43951764,17689,7396,4
43975696,1521,3844,4
43998588,11881,0,4
44019380,2025,0,4
44039124,15876,961,4
44062004,0,1,4
44078672,0,3969,4
44098424,196,9,4
44117156,144,5776,4
44138984,10816,0,4
44159780,6400,14884,4
44183696,0,729,4
44202408,25281,3600,4
44226336,144,5929,4
44248176,15129,625,4
44271048,6400,1156,4
44293936,5476,729,4
44315760,5625,1369,4
44338672,0,0,4
44355284,0,25233,4
44376092,6724,0,4
44395860,5776,100,4
44417696,196,24025,4
44440564,0,8649,4
44460348,27225,7569,4
44484244,1089,400,4
44506092,0,4356,4
44525848,10640,13924,4
44550824,31185,25065,4
44575768,17161,0,4
44596588,4624,27889,4
44620504,0,2704,4
44640264,0,11664,4
44661064,5476,676,4
44682892,1521,324,4
44704724,64,6400,4
44725540,5929,10000,4
44749436,841,0,4
44768160,961,28900,4
44791056,5184,100,4
44812900,0,196,4
44831644,100,4,4
44850352,1,49,4
44868020,100,64,4
44887776,6084,6889,4
44910660,19600,16641,4
44935616,2209,9,4
44955376,121,1849,4
44977236,2025,20164,4
45001128,23104,1521,4
45025036,27556,15376,4
45050028,0,0,4
45066640,3617,32433,4
45090568,0,0,4
45107220,17689,32400,4
45132184,2500,14400,4
45156088,2025,3600,4
45178980,0,0,4
45195624,16260,0,4
45216420,81,15625,4
45238252,29929,1545,4
45262176,4225,27889,4
45286120,5828,17161,4
45310036,0,1600,4
45329780,3249,24964,4
45353684,1024,7921,4
45376604,64,0,4
45394244,1369,0,4
45414012,7569,26896,4
45437936,0,0,4
45454576,0,8601,4
45474328,529,0,4
45493060,4356,576,4
45514896,676,1,4
45533624,36,36,4
45552340,49,16,4
45571068,1,64,4
45588740,64,16,4
45607472,1156,3600,4
45630336,3969,10816,4
45654264,2401,289,4
45676112,36,1369,4
45696892,625,18769,4
45719784,12321,7056,4
45743692,16129,4900,4
45767624,29584,24964,4
45792580,2601,7056,4
45815444,9216,4900,4
45838328,0,0,4
45854972,0,15913,4
45875780,4489,11748,4
45899700,16900,24964,4
45924644,10000,24336,4
45949608,8804,20900,4
45973528,26896,0,4
45994340,4761,25,4
46015136,1764,49,4
46035924,13689,289,4
46058816,30625,31329,4
46083756,100,27889,4
46106664,20313,0,4
46127460,5929,28900,4
46151360,10000,7921,4
46175288,81,2916,4
46196120,729,14400,4
46218980,11025,361,4
46241856,25,9216,4
46262652,14641,841,4
46285532,25,8281,4
46306328,26244,2401,4
46330276,10609,2116,4
46354172,529,7921,4
46376036,2601,4489,4
46398892,20449,9409,4
46422808,6400,29241,4
46446732,0,17161,4
46467544,144,10404,4
46490432,400,289,4
46511232,3969,1,4
46530984,484,16,4
46550736,9,144,4
46569444,196,144,4
46590268,25,1,4
46607936,6889,4,4
46627696,2809,729,4
46649552,10089,5625,4
46673448,15129,841,4
46696332,12544,26244,4
46721292,361,1156,4
46743120,7744,16129,4
46767040,100,24025,4
46789940,0,17956,4
46810748,0,100,4
46829460,4,1600,4
46849228,961,2209,4
46871064,4,100,4
46889788,81,1369,4
46910592,81,1296,4
46931376,289,441,4
46952196,144,64,4
46971948,64,841,4
46991724,16,361,4
47011472,4,0,4
47028100,36,9,4
47045772,28561,8649,4
47069704,17985,0,4
47090484,9604,5041,4
47113384,324,841,4
47134180,16,4,4
47151860,81,169,4
47171628,169,49,4
47191388,0,49,4
47209060,144,100,4
47229856,25,0,4
47247540,21904,2304,4
47271444,0,18225,4
47292244,8649,7396,4
47315156,144,5329,4
47336988,12544,3249,4
47360900,36,5929,4
47381696,7396,5329,4
47404592,2601,625,4
47426424,4225,1681,4
47449324,81,49,4
47468004,6889,5184,4
47490900,1369,9,4
47510672,36,0,4
47528356,64,900,4
47548116,196,144,4
47568904,100,1156,4
47590744,225,4225,4
47612584,4,441,4
47631296,81,49,4
47650024,64,25,4
47668748,4,0,4
47685368,0,8464,4
47705144,0,6724,4
47724916,4,25,4
47742560,81,3600,4
47763360,576,8281,4
47785232,17689,1849,4
47809144,289,25,4
47828884,19600,9216,4
47852812,1024,14400,4
47876756,4,17985,4
47897516,2585,0,4
47917296,0,36,4
47934984,9409,0,4
47954712,29929,5753,4
47978644,1089,7396,4
48001524,676,13456,4
48024412,1849,16,4
48045208,4,16384,4
48066016,0,5625,4
48085744,0,25,4
48103436,27225,6400,4
48127368,0,22500,4
48148144,0,17689,4
48168968,1936,64,4
48189780,256,1,4
48208504,2025,1225,4
48231372,2704,121,4
48253228,9,400,4
48271940,121,16,4
48291700,49,225,4
48311460,289,169,4
48332256,25,16,4
48350976,121,169,4
48371780,121,16,4
48391552,529,25,4
48411300,784,225,4
48432088,2401,144,4
48453940,3969,9,4
48473704,256,196,4
48494504,9,10201,4
48515324,7569,1089,4
48538176,2025,400,4
48560012,4489,1296,4
48582892,9216,1225,4
48605780,9801,32761,4
48629676,1156,14161,4
48653612,16129,6241,4
48677536,24649,0,4
48698336,4489,0,4
48718104,9216,1296,4
48740976,4,1600,4
48760736,0,121,4
48779472,25,16,4
48798180,49,36,4
48816916,100,361,4
48837720,6561,9,4
48857472,4624,3481,4
48880324,16129,0,4
48901132,8464,2500,4
48924036,0,5929,4
48943784,0,32041,4
48964548,4900,30976,4
48988516,13425,289,4
49011364,0,2401,4
49031132,784,1936,4
49052988,4,196,4
49071692,81,4,4
49089384,9,25,4
49107068,36,9,4
49124756,0,9604,4
49144496,625,18225,4
49167372,5041,144,4
49189220,1600,676,4
49211060,225,64,4
49230812,0,16,4
49248516,64,5476,4
49269324,4,9801,4
49289068,529,13924,4
49311932,2401,29584,4
49335876,100,9540,4
49357700,0,14161,4
49378488,21904,3844,4
49402436,3481,1024,4
49425300,49,12321,4
49447148,28900,1369,4
49471044,27225,11025,4
49496008,32761,0,4
49516816,29584,0,4
49537632,1296,0,4
49557388,625,196,4
49578184,16,49,4
49596912,8649,289,4
49618720,23104,676,4
49641616,3600,1849,4
49664488,81,13689,4
49686336,0,6561,4
49706092,0,14400,4
49726876,5929,15876,4
49750812,81,5929,4
49771636,1089,49,4
49792420,36,100,4
49812176,9,16,4
49829852,81,121,4
49849620,64,9,4
49867304,1,25,4
49884980,6400,5929,4
49907860,15376,13225,4
49932828,784,0,4
49951532,25,1849,4
49972368,169,1,4
49991068,81,361,4
50010820,4,49,4
50028492,36,144,4
50048260,100,25,4
50068028,0,5041,1
50087788,256,7921,1
50109616,400,2025,1
50131464,0,2704,1
50151224,225,1,1
50169948,9,36,1
50187628,0,5929,1
50207376,1,14641,1
50228176,25,10816,1
50250012,441,8100,1
50271860,169,961,1
50292656,361,25,1
50312420,100,64,1
50332188,49,25,1
50350900,0,16,1
50368592,36,25,1
50387324,9,144,1
50406036,4,196,1
50424756,25,256,1
50444524,16,4,1
50462164,0,15876,1
50482972,5828,0,1
50502724,0,20900,1
50523516,16641,0,1
50544312,6561,7921,1
50567204,23716,64,1
50589040,31329,6084,1
50612976,16,729,1
50632760,196,3969,1
50654592,9604,225,1
50676396,4096,11236,1
50700332,13689,441,1
50723224,3969,8464,1
50746116,16641,1521,1
50770008,18496,21316,1
50794976,26569,0,1
50815784,100,0,1
50834492,10000,484,1
50857364,100,900,1
50878172,81,441,1
50897952,1,49,1
50915636,8836,12100,1
50939512,30976,0,1
50960316,2025,21609,1
50984252,9409,15625,1
51008168,10404,10201,1
51033144,26896,0,1
51053952,196,7056,1
51075760,28900,2025,1
51099684,26244,13225,1
51124644,27556,0,1
51145456,5476,0,1
51165212,25600,361,1
51188104,22801,900,1
51210980,1849,1,1
51230748,529,100,1
51251548,25,25,1
51270264,81,64,1
51288972,25,1,1
51306680,9,6724,1
51326412,225,27225,1
51349284,1024,4900,1
51372188,676,36,1
51391956,4,729,1
51410660,49,3721,1
51431456,196,961,1
51452272,1681,100,1
51474084,19600,21316,1
51499052,16129,4160,1
51522976,22201,16900,1
51547936,8649,64,1
51568752,15876,169,1
51591628,7569,16129,1
51615524,0,8836,1
51635280,0,25065,1
51656096,0,0,1
51672740,7569,0,1
51692488,49,24649,1
51714352,5929,36,1
51735140,10404,961,1
51758000,0,2304,1
51777752,17689,31185,1
51802720,10816,0,1
51823516,7396,7569,1
51846416,576,1369,1
51868252,1225,23716,1
51892176,441,0,1
51910896,17956,18496,1
51935860,0,4160,1
51955604,0,0,1
51972236,31684,0,1
51993060,10201,17985,1
52018020,0,6724,1
52037760,25,28561,1
52059616,11449,484,1
52082504,4096,484,1
52104336,5929,1369,1
52127204,2500,0,1
52146968,2704,49,1
52167772,3600,576,1
52189604,16,6724,1
52210424,10201,31329,1
52235388,4356,6889,1
52258244,0,10000,1
52279048,0,21904,1
52299860,2809,2601,1
52322724,25,1444,1
52343516,1444,6084,1
52366424,7569,13225,1
52390328,324,81,1
52410092,4489,8281,1
52432992,25281,11449,1
52457944,14641,529,1
52480824,25,15376,1
52502644,0,400,1
52521400,0,6724,1
52541132,5753,0,1
52560900,256,21025,1
52583772,11025,0,1
52604580,144,0,1
52623284,4225,729,1
52645144,169,13924,1
52667988,19321,4489,1
52691908,19881,19881,1
52716912,0,3249,1
52736652,27889,9801,1
52760556,5329,5776,1
52783452,8100,23104,1
52807368,18769,10404,1
52832336,4624,529,1
52854172,0,144,1
52872892,2809,529,1
52894732,5041,5329,1
52917632,4,361,1
52936352,5184,169,1
52958176,49,5776,1
52978992,0,225,1
52997708,16,841,1
53017468,9,1521,1
53037224,196,2025,1
53059076,784,1,1
53077768,5476,144,1
53099632,441,2916,1
53121448,20164,15876,1
53146404,6400,1849,1
53169264,64,1369,1
53190068,3136,1444,1
53212968,24964,22801,1
53237948,13689,144,1
53260820,3025,17424,1
53284740,1369,8464,1
53307608,9216,22801,1
53331512,5929,18496,1
53355444,1600,1681,1
53378344,2500,1600,1
53401212,729,9,1
53419936,1849,7744,1
53442812,1681,3481,1
53465688,1936,0,1
53485452,1225,14641,1
53509368,196,2809,1
53531212,7056,529,1
53553044,16900,2704,1
53576976,289,16384,1
53599852,5184,2209,1
53622748,900,625,1
53643544,25,9,1
53661216,5329,484,1
53683048,3364,484,1
53704900,2209,289,1
53726744,441,2209,1
53748580,529,1156,1
53770428,3600,9,1
53790172,14161,49,1
53812028,5476,900,1
53833868,169,25,1
53853624,1089,2025,1
53876504,1024,49,1
53897316,25,576,1
53917060,361,1444,1
53938900,625,196,1
53959704,16129,0,1
53980508,0,0,1
53997124,20449,676,1
54020008,576,169,1
54040820,0,256,1
54059536,0,256,1
54078264,12100,256,1
54101160,1936,1225,1
54124016,9,841,1
54142736,1681,196,1
54164584,3481,16,1
54185380,2601,1,1
54205140,49,0,1
54222824,49,16,1
54241544,196,4,1
54260276,676,9,1
54278984,100,225,1
54299784,81,0,1
54317460,3136,400,1
54339304,1369,324,1
54361144,4225,729,1
54382992,4225,676,1
54404820,144,36,1
54424592,121,1,1
54443304,100,81,1
54463056,529,144,1
54483860,400,289,1
54504664,484,49,1
54524436,81,25,1
54543136,1,256,1
54561884,196,1600,1
54583696,529,1296,1
54605544,256,169,1
54626348,576,0,1
54645072,36,36,1
54663776,49,361,1
54683540,36,121,1
54703316,361,100,1
54724116,121,81,1
54743860,576,81,1
54763624,1296,100,1
54785468,625,121,1
54806260,100,1024,1
54828108,729,1296,1
54849936,7225,16,1
54870740,9025,81,1
54891548,1849,729,1
54913388,81,1681,1
54934172,144,400,1
54954984,256,225,1
54975788,400,25,1
54995544,576,100,1
55016336,1849,36,1
55037144,1600,0,1
55056912,1,1156,1
55076656,2209,1225,1
55099540,3600,1156,1
55122408,0,576,1
55141136,10609,3844,1
55165068,81,25,1
55183784,225,25,1
55203540,484,121,1
55224348,400,100,1
55245148,144,0,1
55263864,64,36,1
55282584,100,9,1
55301316,49,25,1
55320032,784,256,1
55340808,1521,1444,1
55363700,9,961,1
55382416,64,0,1
55400108,1600,196,1
55421928,2304,1764,1
55444824,16,729,1
55464584,625,25,1
55484336,49,4,1
55502040,100,196,1
55522828,256,64,1
55542584,625,144,1
55563388,324,25,1
55583132,2401,324,1
55604972,10816,1444,1
55628908,2809,1369,1
55651780,1681,324,1
55673624,576,2025,1
55695456,1225,289,1
55717304,2401,784,1
55739144,2116,36,1
55759968,1156,0,1
55779708,16,484,1
55799448,9,961,1
55818184,64,2025,1
55839004,9,484,1
55857716,1,36,1
55875372,625,900,1
55896188,484,289,1
55916992,1521,900,1
55938832,6561,4,1
55958580,6724,1024,1
55981464,5625,1156,1
56004332,625,625,1
56025148,4,25,1
56042840,729,256,1
56063624,361,256,1
56084420,361,144,1
56105216,400,529,1
56126020,256,400,1
56146824,2809,49,1
56167624,7569,441,1
56189480,4,4,1
56206104,3025,4900,1
56228980,3481,6561,1
56251860,1849,400,1
56273700,0,81,1
56291380,361,225,1
56312180,1156,121,1
56334020,1600,324,1
56355868,2809,0,1
56375632,3600,9,1
56395392,1936,256,1
56417224,64,1444,1
56438028,6561,289,1
56459852,0,1156,1
56479632,19321,1681,1
56503552,16,81,1
56522276,729,484,1
56543064,0,49,1
56560760,100,196,1
56581548,100,64,1
56601316,225,49,1
56621072,225,64,1
56640820,25,49,1
56659560,1024,256,1
56681384,1849,484,1
56703236,121,225,1
56724020,25,121,1
56743788,676,196,1
56764600,2209,16,1
56785368,484,1444,1
56807224,225,1600,1
56829060,5041,400,1
56850896,1936,729,1
56872744,625,49,1
56892512,64,1,1
56910200,100,25,1
56929936,289,64,1
56949688,1369,25,1
56970504,324,0,1
56989228,256,144,1
57010020,961,529,1
57030832,324,121,1
57051624,169,0,1
57070344,1369,49,1
57091152,900,784,1
57111944,1,1521,1
57131708,324,576,1
57152496,289,225,1
57173312,196,841,1
57194100,25,1600,1
57214900,841,961,1
57235712,256,49,1
57255468,4,625,1
57274180,225,1681,1
57296028,121,784,1
57316816,64,225,1
57336576,4,289,1
57355308,361,676,1
57376108,324,9,1
57394820,196,196,1
57415612,100,1156,1
57437464,2500,100,1
57459296,8649,289,1
57481144,169,289,1
57501944,1225,49,1
57522748,1444,144,1
57544592,289,81,1
57564348,6561,25,1
57585144,1681,0,1
57604904,400,64,1
57624668,0,64,1
57642352,729,144,1
57663148,576,64,1
57682896,400,49,1
57702668,0,256,1
57721384,49,100,1
57741140,4,16,1
57758836,441,121,1
57779628,1444,64,1
57800428,100,16,1
57820192,121,0,1
57838912,121,0,1
57857628,2209,1,1
57877388,12769,484,1
57900264,1521,169,1
57922104,9,225,1
57940828,0,1,1
57957476,1156,36,1
57978288,441,900,1
57999080,9,1,1
58015704,529,784,1
58036512,400,441,1
58057316,4,36,1
58075000,16,676,1
58094756,0,1089,1
58114516,0,169,1
58133228,49,9,1
58150904,196,36,1
58170672,36,36,1
58189384,9,16,1
58207072,784,0,1
58225784,1089,25,1
58246600,289,484,1
58267392,144,625,1
58288196,256,121,1
58308988,324,225,1
58329792,4,64,1
58347456,900,4,1
58366184,361,484,1
58386976,1600,576,1
58408820,3136,144,1
58430672,3481,576,1
58452524,169,9,1
58471240,25,9,1
58488920,225,81,1
58508668,3969,121,1
58530500,3721,784,1
58552352,676,64,1
58572108,5329,36,1
58592904,2401,9,1
58612656,0,0,1
58629312,2116,196,1
58651144,3844,841,1
58672992,196,121,1
58693792,1849,16,1
58714572,1369,36,1
58735388,400,100,1
58756196,25,144,1
58775960,5625,36,1
58796744,4096,144,1
58818592,100,144,1
58839400,529,144,1
58860188,4,16,1
58877860,25,36,1
58896604,4,1,1
58913224,289,225,1
58934036,144,1089,1
58955872,64,1,1
58973548,784,625,1
58994344,0,256,1
59013056,1521,100,1
59034916,3364,256,1
59056744,3969,25,1
59077540,2209,100,1
59099388,81,16,1
59118116,3844,961,1
59139940,3249,225,1
59161796,121,121,1
59182596,400,144,1
59203376,1444,324,1
59225228,1089,2401,1
59248120,961,100,1
59268908,1764,1156,1
59291796,0,576,1
59310512,64,196,1
59330264,196,1,1
59348988,1764,169,1
59370828,2500,169,1
59392664,441,256,1
59413464,441,1936,1
59435316,900,1369,1
59457148,441,81,1
59476920,4,25,1
59494596,100,100,1
59515384,196,1156,1
59537220,441,1369,1
59559068,441,529,1
59579864,49,81,1
59598592,784,1,1
59617316,576,36,1
59637080,49,9,1
59654744,6561,784,1
59676564,9604,1444,1
59699472,676,49,1
59719228,3025,289,1
59741056,625,36,1
59760828,49,81,1
59779556,324,100,1
59800344,676,36,1
59820112,361,4,1
59838836,25,49,1
59857548,900,1,1
59876256,3844,121,1
59898116,2916,841,1
59919948,225,1225,1
59941796,324,100,1
59962588,900,529,1
59983388,1,900,1
60002104,324,324,1
60022908,1444,16,1
60043700,7225,256,1
60065544,4225,0,4
60085324,324,289,4
60106112,25,49,4
60124832,25,196,4
60144592,484,0,4
60163316,64,9,4
60180984,25,1,4
60198668,196,4,4
60217396,1,9,4
60234032,1521,144,4
60255856,3136,841,4
60277704,576,1,4
60296424,900,196,4
60317224,4,121,4
60335948,64,121,4
60355724,225,1,4
60374432,16,100,4
60394172,0,1296,4
60413924,1936,1369,4
60436832,169,576,4
60457620,484,841,4
60478424,784,196,4
60499224,900,0,4
60517952,484,121,4
60538748,36,16,4
60557472,1,256,4
60576192,169,400,4
60596988,784,0,4
60615720,1296,256,4
60637548,2025,196,4
60659384,361,225,4
60680184,144,81,4
60699964,0,0,4
60716604,4,9,4
60733228,49,225,4
60752980,361,529,4
60773780,4225,729,4
60795616,3249,256,4
60817464,961,81,4
60837232,3481,196,4
60859064,625,36,4
60878832,25,4,4
60896512,144,121,4
60917308,1849,0,4
60937076,9,25,4
60954764,9,0,4
60971400,81,49,4
60990112,100,9,4
61008816,0,81,4
61026500,100,100,4
61047308,100,196,4
61068104,64,36,4
61086832,36,16,4
61105548,100,4,4
61124272,4,256,4
61142980,25,1,4
61160680,2209,9,4
61180440,900,196,4
61201220,49,121,4
61220996,289,400,4
61241788,6084,196,4
61263604,19321,784,4
61286508,7396,324,4
61308352,64,36,4
61327072,64,1,4
61344748,36,0,4
61362436,49,289,4
61382176,289,441,4
61403000,841,121,4
61423804,4,256,4
61442516,4,16,4
61460176,900,100,4
61480984,961,576,4
61501796,529,3844,4
61523624,2209,8281,4
61546516,64,196,4
61566264,64,1764,4
61587056,289,36,4
61606816,196,289,4
61627632,676,4,4
61646352,81,81,4
61665068,144,25,4
61684840,676,144,4
61705628,121,4,4
61724336,625,729,4
61745140,1,361,4
61763856,14641,2601,4
61787772,5041,3721,4
61810644,8281,3364,4
61833540,169,289,4
61854324,0,3364,4
61874076,25281,2209,4
61898016,7921,900,4
61919836,2809,23716,4
61943784,1521,0,4
61963544,12769,32400,4
61988500,0,576,4
62007200,12321,16384,4
62032192,256,225,4
62052984,1296,12769,4
62076884,15129,4356,4
62100808,3136,27556,4
62124716,529,29241,4
62147624,9216,0,4
62167388,36,0,4
62185060,5329,16,4
62205860,784,4225,4
62227688,9216,196,4
62249532,0,6400,4
62269284,0,1296,4
62289056,10000,169,4
62311956,0,121,4
62330648,10304,5625,4
62354576,25600,31329,4
62379540,0,6084,4
62399280,8448,32761,4
62423224,18225,9604,4
62447108,0,4900,4
62466904,26537,0,4
62487700,0,3025,4
62507472,15876,144,4
62530352,9409,1600,4
62553228,10201,324,4
62576052,13689,32761,4
62601032,0,27225,4
62621844,24336,3969,4
62645764,0,0,4
62662408,1424,21481,4
62686336,0,28713,4
62707132,5625,6400,4
62730000,10404,13924,4
62754968,11664,0,4
62775740,144,7396,4
62797604,17161,1156,4
62821520,11236,2304,4
62845460,0,0,4
62862100,0,0,4
62878712,0,32761,4
62899548,29584,676,4
62922408,24649,36,4
62944252,6561,0,4
62964024,8649,18564,4
62987936,121,0,4
63006660,4,11025,4
63027456,121,100,4
63048272,16,36,4
63066984,12769,1,4
63087768,0,1444,4
63107544,10816,2500,4
63131456,26569,289,4
63154340,0,4225,4
63174092,36,36,4
63192812,36,25921,4
63214636,441,0,4
63233376,2025,15876,4
63257276,1521,225,4
63279124,1600,1156,4
63302016,1600,169,4
63323852,11025,0,4
63344676,28224,29584,4
63369612,0,2304,4
63389380,4,16,4
63407052,225,256,4
63427872,81,9,4
63445548,169,100,4
63466336,1,169,4
63485064,100,25,4
63504824,49,81,4
63523548,3844,81,4
63544344,7744,144,4
63566188,19728,3249,4
63590080,11449,3844,4
63614012,0,0,4
63630668,30976,528,4
63653544,10201,0,4
63674312,26896,20449,4
63699292,21609,961,4
63722176,441,2601,4
63744008,100,2401,4
63765864,1089,5329,4
63788744,3600,100,4
63810588,0,441,4
63829320,1225,1444,4
63852160,20449,0,4
63872976,31185,24649,4
63897924,0,361,4
63916636,13225,289,4
63939532,3136,324,4
63961380,64,49,4
63980104,0,1,4
63996744,4,4,4
64013384,25600,1225,4
64037296,18564,10404,4
64062260,14400,0,4
64083064,10000,6084,4
64106960,576,2500,4
64128812,13456,3969,4
64152740,1024,7225,4
64175620,10609,0,4
64196408,16900,2500,4
64220340,100,16641,4
64243232,1024,7396,4
64266100,5776,20736,4
64290012,14884,676,4
64312872,10000,31329,4
64337840,0,18496,4
64358664,27889,1089,4
64382572,5329,0,4
64402332,7056,21025,4
64426252,13456,625,4
64449132,19600,3481,4
64473036,3969,0,4
64492804,3364,0,4
64512568,21025,4356,4
64536480,0,841,4
64555212,25600,4761,4
64579128,324,625,4
64599940,100,121,4
64620748,3249,2025,4
64643624,1225,14884,4
64667524,24964,15129,4
64692504,0,0,4
64709132,5184,10640,4
64733032,729,0,4
64751792,0,2585,4
64771548,2064,0,4
64791288,28224,729,4
64814164,11664,0,4
64834988,144,11025,4
64857856,729,361,4
64878652,9,144,4
64897372,1296,576,4
64919212,121,576,4
64940004,2601,25,4
64960820,6561,29929,4
64984720,0,21316,4
65005520,0,2401,4
65025296,196,324,4
65046100,64,256,4
65065852,225,144,4
65086672,16,25,4
65105380,144,225,4
65126172,121,9,4
65144900,9,81,4
65162600,729,121,4
65183384,676,144,4
65204168,2116,121,4
65226020,1764,196,4
65247860,9,49,4
65265536,64,4,4
65283224,17956,25,4
65305040,0,3249,4
65324812,10816,2025,4
65348740,1,64,4
65366428,7569,289,4
65388240,0,2704,4
65408008,9409,400,4
65429872,0,484,4
65448580,0,2304,4
65468328,21025,100,4
65491228,0,0,4
65507860,18769,0,4
65528644,3364,30976,4
65552576,12305,0,4
65573380,4356,0,4
65593124,6561,1089,4
65616032,289,784,4
65636820,441,81,4
65656580,9,225,4
65675292,400,324,4
65696100,81,1,4
65713796,121,9,4
65732480,7056,1225,4
65755368,18225,1,4
65776168,2116,1156,4
65799052,4,4,4
65815712,4,49,4
65833384,11025,3025,4
65857272,28224,17689,4
65882260,2585,19145,4
65906164,19321,0,4
65926968,4624,6724,4
65949864,729,2601,4
65971692,2209,8464,4
65994576,529,784,4
66015384,9801,5184,4
66038264,2025,16,4
66059068,1089,20449,4
66082980,0,2209,4
66102748,6288,12100,4
66126648,9604,1156,4
66149528,1681,7569,4
66172420,0,16384,4
66193200,32400,0,4
66214028,2401,25,4
66234820,144,1,4
66253540,2916,1681,4
66276404,12321,9604,4
66300344,9604,0,4
66320104,2116,11236,4
66344016,20164,324,4
66366884,16900,6889,4
66390828,0,0,4
66407448,11057,0,4
66428264,31808,0,4
66449028,24464,13924,4
66474028,0,3364,4
66493772,30276,3721,4
66517696,1369,0,4
66537452,121,324,4
66558252,289,121,4
66579072,196,8100,4
66600876,0,784,4
66619620,12864,0,4
66640420,441,15625,4
66663292,0,0,4
66679956,9553,8100,4
66702824,27332,4624,4
66726720,20736,6241,4
66750656,23104,22500,4
66775620,4,18225,4
66796404,10000,4489,4
66820348,32041,32400,4
66845276,7569,22500,4
66869212,20900,0,4
66890008,0,31329,4
66910816,6889,5184,4
66933680,5476,0,4
66953468,1,9,4
66970092,25281,6084,4
66994004,0,12769,4
67014800,4096,8100,4
67037696,484,64,4
67057460,25,169,4
67077228,121,16,4
67096984,0,25,4
67114660,49,36,4
67133372,9,4,4
67150036,25,4225,4
67170832,169,9025,4
67192656,576,49,4
67212424,49,1156,4
67233224,100,25,4
67252976,16,16,4
67271724,1,256,4
67290424,15376,900,4
67313300,0,7921,4
67333044,12100,3721,4
67356976,0,49,4
67374656,0,49,4
67392360,0,0,4
67408988,81,5776,4
67429792,9409,11449,4
67453684,0,2116,4
67473456,5625,5329,4
67496344,256,16,4
67516104,1,1,4
67532740,0,4096,4
67552504,9,12321,4
67573288,625,2500,4
67595140,441,0,4
67613868,4,36,4
67631548,1,529,4
67650264,4,841,4
67668964,0,3364,4
67688708,27225,1849,4
67712648,0,2401,4
67732408,11193,8281,4
67756340,0,5929,4
67776084,5041,3969,4
67798964,0,23409,4
67819776,29241,27889,4
67844728,24336,169,4
67867608,0,7225,4
67887392,4,5329,4
67907136,4900,5929,4
67930004,17424,25,4
67951856,625,196,4
67972656,36,49,4
67991376,64,841,4
68011140,529,25,4
68030900,9,121,4
68049604,18769,10201,4
68074576,0,30976,4
68095360,11881,9604,4
68119304,6889,0,4
68139048,21609,28900,4
68164004,0,3136,4
68183780,64,4,4
68201456,144,81,4
68221232,1,9,4
68237856,30976,9604,4
68261764,18564,0,4
68282564,8464,18225,4
68306492,900,9216,4
68328324,10816,3136,4
68352244,4,4356,4
68372000,18496,25921,4
68396976,9604,3364,4
68419864,0,29929,4
68440644,0,0,4
68457288,6084,8100,4
68480180,0,0,4
68496836,0,27489,4
68517612,4356,12544,4
68541520,0,2809,4
68561308,31684,6724,4
68585212,576,441,4
68606020,324,169,4
68626812,0,6724,4
68646552,64,8649,4
68667368,4,8464,4
68687140,144,9801,4
68708968,0,11664,4
68729752,23409,10000,4
68754740,841,100,4
68775560,1,25,4
68793216,225,1521,4
68815056,25,49,4
68833780,1,64,4
68851476,81,100,4
68871244,4,36,4
68888924,16,1,4
68906564,0,4761,4
68926332,30276,11664,4
68951312,0,2916,4
68971056,28561,15376,4
68996000,196,5184,4
69017888,16,0,4
69035552,676,1424,4
69057384,1369,8836,4
69080240,0,0,4
69096900,5828,28713,4
69120804,32433,0,4
69141620,19881,13225,4
69166580,28224,4225,4
69190480,2809,5929,4
69213368,3969,19600,4
69237296,0,16384,4
69258104,0,2704,4
69277856,5184,2916,4
69300728,31684,3249,4
69324648,27225,5625,4
69348584,0,0,4
69365204,26537,7312,4
69389128,0,0,4
69405784,12996,0,4
69426588,3249,0,4
69446340,576,25,4
69466080,196,3600,4
69487928,0,0,4
69504552,1028,0,4
69524332,10816,1681,4
69548264,0,0,4
69564868,27489,0,4
69585684,0,6889,4
69605452,22500,0,4
69626256,225,26244,4
69649132,0,0,4
69665752,3633,15689,4
69689684,0,0,4
69706320,0,14553,4
69727128,15376,1521,4
69751044,9025,29929,4
69774976,6561,0,4
69794744,3025,7056,4
69817628,529,29241,4
69840492,25281,14400,4
69865456,0,10609,4
69886264,15625,100,4
69909136,3844,1369,4
69931996,2500,6724,4
69954900,19321,289,4
69977764,64,0,4
69995440,0,25065,4
70016256,0,17956,4
70037040,7744,8649,4
70059924,144,13225,6
70082824,196,169,6
70103620,1,1849,6
70123364,400,12996,6
70146272,0,0,6
70162892,7312,3633,6
70185752,12321,3617,6
70209708,15689,0,6
70230488,0,2025,6
70250280,1024,2209,6
70273144,121,36,6
70292896,256,81,6
70312664,900,81,6
70332396,144,0,6
70351124,4624,0,6
70370880,36,225,6
70390644,2025,36,6
70411468,1849,81,6
70432272,81,25,6
70450980,9,9,6
70467632,36,4,6
70485292,0,20164,6
70506100,7312,0,6
70525852,14641,14884,6
70550812,625,24964,6
70573684,961,9604,6
70595536,3136,11664,6
70619452,0,16,6
70637128,16833,22801,6
70662080,8464,10816,6
70686024,7905,0,6
70705776,23409,0,6
70726568,7396,4489,6
70749464,256,625,6
70770256,64,1225,6
70791048,64,1764,6
70811868,256,0,6
70830584,1,9,6
70847228,81,1681,6
70868024,484,2916,6
70889864,1089,3969,6
70912724,3721,5929,6
70935612,0,0,6
70952252,5753,0,6
70972008,3481,29929,6
70995920,4689,0,6
71015708,0,30564,6
71036508,28561,5476,6
71060404,8057,5476,6
71083292,0,19881,6
71104100,324,2116,6
71125924,29241,24649,6
71150876,0,16900,6
71171680,7744,900,6
71193540,16,4624,6
71214304,0,7744,6
71234088,0,1369,6
71253840,6084,4225,6
71276748,0,0,6
71293380,2064,0,6
71313136,441,21025,6
71336008,0,23409,6
71356812,17985,0,6
71377604,0,3108,6
71397356,7056,19600,6
71421288,5041,1,6
71441064,3721,8100,6
71463928,6561,3025,6
71486808,4,16641,6
71507604,0,15376,6
71528424,961,0,6
71547152,81,25668,6
71568960,4900,17161,6
71592896,2116,576,6
71614744,64,28900,6
71636580,1089,26569,6
71660496,2500,81,6
71681296,16,484,6
71701060,49,1764,6
71721852,1089,9216,6
71744732,36,8836,6
71765540,81,6724,6
71786340,5625,5184,6
71809208,5329,49,6
71829992,9604,0,6
71849792,25668,4,6
71870564,0,0,6
71887208,12996,196,6
71910112,13456,0,6
71930888,7744,528,6
71952736,1,31684,6
71973504,16833,1521,6
71997428,0,22801,6
72018260,100,25921,6
72041128,3969,25,6
72061912,144,24964,6
72084804,529,0,6
72103524,6400,2500,6
72126400,1089,20736,6
72150336,0,6561,6
72170092,23716,13689,6
72195052,17161,121,6
72217948,900,5476,6
72239768,1225,0,6
72259524,30976,7921,6
72283444,0,7569,6
72303196,0,324,6
72321932,729,441,6
72342728,32761,529,6
72365612,29328,7056,6
72389516,11881,22500,6
72414508,2704,100,6
72436332,2916,4096,6
72459208,441,484,6
72480012,7056,0,6
72499764,17161,1024,6
72523668,625,36,6
72543448,324,4761,6
72565300,0,18225,6
72586088,19600,25921,6
72611064,144,25,6
72630816,64,1521,6
72651628,2916,4356,6
72674488,32761,15876,6
72699440,14161,8100,6
72723372,15689,1936,6
72747296,0,2704,6
72767056,2704,144,6
72788900,2809,64,6
72809704,0,441,6
72828420,144,900,6
72849220,100,1,6
72867944,121,36,6
72887708,100,1,6
72906416,289,729,6
72927208,81,289,6
72946980,5929,196,6
72968824,24025,1156,6
72992748,5329,1936,6
73015620,18769,3364,6
73039528,2704,5476,6
73062388,5184,49,6
73083212,36,81,6
73101932,64,625,6
73121692,121,0,6
73140424,676,8464,6
73162248,1681,9604,6
73185136,0,3249,6
73204912,24964,13225,6
73229860,196,1444,6
73251700,729,400,6
73272512,576,289,6
73293304,12321,25,6
73315136,196,64,6
73334904,31808,3025,6
73358800,8057,10609,6
73382704,28224,10609,6
73407708,0,16,6
73425372,0,4900,6
73445132,0,3844,6
73464916,1369,3600,6
73487760,0,1156,6
73507568,10089,7056,6
73531480,25,1369,6
73552276,10609,1,6
73573060,2500,2116,6
73595916,0,784,6
73614644,26896,3249,6
73638568,36,25,6
73657276,169,25,6
73677028,1225,1156,6
73699920,169,16,6
73719688,144,225,6
73740484,289,841,6
73761308,9,25,6
73778972,121,3136,6
73800820,0,2209,6
73820572,4,1600,6
73840324,441,1296,6
73862188,4356,289,6
73884016,13689,144,6
73906904,17956,2916,6
73930828,400,441,6
73951632,1369,100,6
73973468,4225,9,6
73993232,22801,1936,6
74017124,8448,4624,6
74040028,5753,6084,6
74062904,3969,64,6
74083700,15129,121,6
74106580,10404,2401,6
74130512,16,484,6
74150264,0,16,6
74167952,529,36,6
74187708,841,144,6
74208500,1369,121,6
74230348,1,2809,6
74250108,1849,2025,6
74272984,5329,1764,6
74295860,0,36,6
74313548,7312,3481,6
74336400,0,6400,6
74356160,29241,4096,6
74380092,169,961,6
74400896,13456,1296,6
74424796,0,1600,6
74444564,13456,225,6
74467464,0,1225,6
74487220,0,4096,6
74506984,2809,400,6
74528824,3721,841,6
74550668,1156,1225,6
74573544,576,100,6
74594336,0,4,6
74610988,0,8836,6
74630756,729,9801,6
74652568,16260,1681,6
74676492,0,5929,6
74696244,256,100,6
74717056,49,1,6
74734728,81,16,6
74753432,225,1764,6
74775296,0,3364,6
74795048,17924,3969,6
74818968,22500,2116,6
74842908,0,5776,6
74862656,30625,9409,6
74886588,3249,36,6
74907380,8281,64,6
74928196,2500,81,6
74948988,361,900,6
74969780,289,2304,6
74991624,6889,225,6
75013464,8281,484,6
75035296,3844,121,6
75057120,3969,121,6
75078964,169,49,6
75098716,256,144,6
75119540,2209,64,6
75140336,6561,625,6
75162176,0,144,6
75180884,10304,8281,6
75204840,5828,10201,6
75228740,25281,4225,6
75252640,0,529,6
75271392,0,11881,6
75292192,7921,3844,6
75315068,6241,1,6
75334836,2500,49,6
75355600,676,100,6
75376396,121,81,6
75396168,9,49,6
75413844,121,441,6
75434660,23716,16,6
75456476,12305,1444,6
75480400,12996,8836,6
75504328,18769,1156,6
75528272,2704,36,6
75549064,3481,361,6
75570900,121,961,6
75591688,0,25,6
75609396,0,22500,6
75630164,0,8100,6
75649944,1444,1681,6
75672808,29584,1936,6
75696712,11881,8100,6
75720632,400,1764,6
75742504,0,25,6
75760168,0,19321,6
75780956,0,4225,6
75800728,100,0,6
75819460,21904,3364,6
75843356,0,7921,6
75863144,8804,3844,6
75886020,17956,6400,6
75909948,2209,2500,6
75932812,0,484,6
75951544,21316,5184,6
75975452,100,841,6
75996256,576,289,6
76017040,196,100,6
76037836,64,256,6
76057612,25,0,6
76075288,0,16,6
76092976,81,1,6
76110668,4,196,6
76129392,0,900,6
76148104,29584,3136,6
76172020,10404,1936,6
76195932,4356,3364,6
76218808,11025,2916,6
76242728,9604,25,6
76263540,1225,1849,6
76286408,18225,4225,6
76310348,13689,1369,6
76334264,0,225,6
76352988,9,2916,6
76372724,3364,1,6
76392484,1089,256,6
76414348,6084,144,6
76436168,10000,361,6
76459056,1369,1296,6
76481944,29584,484,6
76504832,11449,2209,6
76528752,1296,256,6
76550560,0,529,6
76569300,0,10000,6
76590096,4624,289,6
76611952,400,1849,6
76633772,0,1225,6
76653508,11881,3364,6
76677448,400,2401,6
76699304,64,841,6
76719040,729,841,6
76739844,3249,529,6
76761708,0,1296,6
76781456,0,2916,6
76801220,0,3364,6
76820964,21609,256,6
76843860,17956,3364,6
76867788,729,256,6
76888588,1521,169,6
76910424,2304,484,6
76932260,27225,144,6
76955132,7056,1681,6
76978012,5184,1,6
76997772,7569,1,6
77017524,22201,5625,6
77041460,13988,10201,6
77066412,21609,8649,6
77090340,900,361,6
77111120,0,1156,6
77130920,0,7056,6
77150648,0,4096,6
77170420,0,961,6
77189152,10000,3136,6
77213056,0,196,6
77231784,19145,7744,6
77255680,0,961,6
77274412,11449,121,6
77297276,1024,784,6
77319128,144,49,6
77338888,4,400,6
77357612,9216,2209,6
77380480,12544,2025,6
77404412,8464,36,6
77425236,49,16,6
77443956,5329,49,6
77464760,324,289,6
77485536,0,289,6
77504264,1,1521,6
77524036,100,1369,6
77545876,49,196,6
77565624,16,36,6
77584340,36,16,6
77603068,4,49,6
77620752,100,121,6
77641560,1156,9,6
77661312,2116,441,6
77683144,1444,1089,6
77706028,1681,196,6
77727880,841,1,6
77746596,484,36,6
77766348,169,49,6
77786104,0,1444,6
77805868,25,121,6
77825632,3481,484,6
77847452,361,729,6
77868272,21904,4,6
77889072,3481,1764,6
77911928,20449,25,6
77933764,2704,729,6
77955604,4761,1444,6
77978484,900,16,6
77998256,441,729,6
78019060,4761,1,6
78038796,5329,1089,6
78061696,29929,5476,6
78085632,5184,2916,6
78108480,11193,1444,6
78132428,0,3844,6
78152184,529,0,6
78170896,22201,1,6
78191692,8836,4,6
78211464,32761,9,6
78232252,0,1521,6
78251996,5329,121,6
78273844,7569,1444,6
78296748,361,49,6
78316500,169,1024,6
78338340,0,1024,6
78358080,0,11236,6
78378904,0,15376,6
78399696,0,6084,6
78419456,19600,6400,6
78443364,0,784,6
78462100,22201,3025,6
78486040,1,121,6
78504744,81,16,6
78523476,784,1089,6
78545316,100,169,6
78566104,81,1764,6
78586916,64,529,6
78606676,64,121,6
78626424,256,100,6
78647212,9,121,6
78665952,49,961,6
78685708,16,49,6
78704436,25,1,6
78722116,324,0,6
78740832,196,196,6
78761620,4,484,6
78780336,289,36,6
78800120,4900,25,6
78820916,32400,1369,6
78844828,7744,1369,6
78867712,0,225,6
78886432,81,441,6
78906200,0,0,6
78922840,361,121,6
78943640,16,49,6
78962344,25,81,6
78981060,361,225,6
79001876,49,81,6
79020588,3249,196,6
79042420,5041,256,6
79064280,10609,36,6
79086108,1681,4,6
79105868,4,900,6
79124596,169,1600,6
79146432,0,0,6
79163060,361,625,6
79183880,0,529,6
79202596,2304,4,6
79222348,841,9,6
79241068,1521,64,6
79261876,3721,225,6
79283720,576,144,6
79304512,289,1,6
79323220,6400,49,6
79344036,15876,900,6
79366904,2809,625,6
79388752,25,256,6
79408484,0,9,6
79425148,21028,12769,6
79450084,28100,19881,6
79475052,6084,4761,6
79497936,49,4,6
79515604,2209,324,6
79537476,100,576,6
79558264,81,324,6
79578004,12321,81,6
79599872,3025,81,6
79620672,1369,36,6
79641468,0,1156,6
79661228,18769,529,6
79684116,30976,2304,6
79708016,12769,3481,6
79731944,7225,144,6
79753764,4489,841,6
79775620,25281,784,6
79798500,12996,1600,6
79822420,9025,256,6
79844260,676,64,6
79864036,1600,0,6
79883804,4,1369,6
79903556,529,9,6
79922276,441,576,6
79943076,2401,784,6
79964912,36,625,6
79984676,289,169,6
80005480,1,64,6
80023156,4,9,6
80039800,25,100,6
80059560,100,25,5
80079304,11025,144,5
80102188,26896,1600,5
80126112,4356,2401,5
80148980,7921,361,5
80170832,625,729,5
80191624,13924,1849,5
80215524,3600,625,5
80237368,1369,3600,5
80260264,0,400,5
80278984,26896,5929,5
80302912,576,2209,5
80324748,1156,225,5
80346576,3969,400,5
80368416,4225,100,5
80390260,4,196,5
80408984,30276,1089,5
80432900,18225,3249,5
80456828,0,3136,5
80476560,0,5184,5
80496328,12544,1681,5
80520272,0,841,5
80538980,24025,3249,5
80562900,13689,196,5
80585792,0,1156,5
80605560,9216,0,5
80625308,625,64,5
80645064,1,36,5
80662756,49,361,5
80682520,1296,64,5
80703308,576,81,5
80723072,36,36,5
80741792,676,64,5
80761552,729,144,5
80782356,22500,1444,5
80806272,10404,784,5
80829136,27225,1024,5
80853060,0,5776,5
80872804,9409,2500,5
80895684,1764,1849,5
80918576,400,529,5
80939392,0,25,5
80957064,28900,2809,5
80980976,10000,25,5
81002820,4900,2704,5
81025700,841,36,5
81045444,441,121,5
81066276,3136,676,5
81088100,2401,729,5
81109924,10404,961,5
81132800,7056,961,5
81154644,1,169,5
81173384,20449,1764,5
81197304,13689,121,5
81220164,1296,0,5
81239880,21904,5776,5
81263836,7225,17956,5
81287764,3481,4624,5
81310640,100,729,5
81331456,121,289,5
81352264,0,25,5
81369944,1600,121,5
81391788,625,121,5
81412572,169,1369,5
81434408,625,15376,5
81457296,576,4356,5
81479124,2401,625,5
81500976,169,0,5
81519680,225,0,5
81538436,0,21809,5
81559216,0,0,5
81575840,3721,0,5
81595608,9604,0,5
81615392,2025,0,5
81635140,7056,15625,5
81659060,8836,7744,5
81681948,9604,3600,5
81704804,17161,3969,5
81728752,2401,0,5
81748508,2916,22801,5
81772412,2704,225,5
81794248,20449,2116,5
81818148,169,0,5
81836872,3364,26569,5
81860808,3136,22201,5
81884736,12996,8464,5
81908640,1296,9409,5
81931516,0,11881,5
81952324,19321,0,5
81973136,529,4,5
81991860,0,576,5
82010568,729,324,5
82031372,36,81,5
82050100,361,441,5
82070912,225,9,5
82089632,4900,1089,5
82112480,8281,12769,5
82136420,1225,3481,5
82159292,0,0,5
82175916,12569,20548,5
82200888,25668,11328,5
82225844,3721,0,5
82245612,7056,16,5
82266424,81,169,5
82286180,64,1,5
82303860,1,49,5
82321544,81,64,5
82340256,16,0,5
82357940,16,36,5
82376672,1369,17424,5
82400568,2116,0,5
82420324,841,13689,5
82443212,1849,9,5
82462992,4,196,5
82481692,49,0,5
82499376,36,121,5
82519144,121,64,5
82538908,4,9,5
82555524,0,0,5
82572164,21609,0,5
82592976,5476,49,5
82613772,4,196,5
82632492,49,16,5
82651220,100,225,5
82672032,169,64,5
82691776,0,36,5
82709456,81,64,5
82728192,2025,1849,5
82751044,5184,6889,5
82773916,49,12769,5
82795788,0,9409,5
82815536,0,289,5
82834244,0,16,5
82851924,27889,5329,5
82875856,196,529,5
82896660,0,25,5
82914332,24025,6724,5
82938240,676,0,5
82956932,0,28900,5
82977748,22201,9216,5
83001684,4356,361,5
83023512,6241,9216,5
83046416,3844,6241,5
83069272,0,19881,5
83090088,12996,5753,5
83114016,81,256,5
83133776,4,1764,5
83153520,2304,1089,5
83176404,0,0,5
83193052,29729,0,5
83213844,2809,0,5
83233608,8281,324,5
83255464,0,28900,5
83276244,18769,0,5
83297052,5929,49,5
83317860,676,529,5
83338656,36,121,5
83358408,529,841,5
83379216,529,81,5
83398980,25,225,5
83418736,5329,100,5
83440564,8281,256,5
83462424,784,1089,5
83484248,100,25,5
83504012,0,81,5
83521712,225,169,5
83542500,64,1,5
83560176,36,100,5
83579944,81,36,5
83598668,1,16,5
83616340,64,49,5
83635076,25,0,5
83652740,0,23104,5
83673524,27889,2601,5
83697440,0,0,5
83714088,13328,10417,5
83739044,17985,19617,5
83764004,3721,0,5
83783768,4900,289,5
83805616,1936,9,5
83825368,8464,1089,5
83848244,0,0,5
83864884,0,5892,5
83884644,4356,0,5
83904408,6400,1,5
83924176,0,729,5
83942904,484,81,5
83962660,4,144,5
83981388,289,256,5
84002184,100,0,5
84020900,81,144,5
84040656,121,36,5
84060420,0,49,5
84078104,100,100,5
84098904,25,0,5
84116584,25,64,5
84135308,49,16,5
84154004,0,2809,5
84173748,32041,12321,5
84198736,0,10304,5
84219520,10000,0,5
84240324,4624,49,5
84261140,36,529,5
84280896,625,361,5
84301700,100,9,5
84320420,169,324,5
84341216,225,49,5
84360980,1,81,5
84378660,169,100,5
84399468,25,1,5
84417136,49,121,5
84436892,100,16,5
84456668,4,25,5
84474352,64,2500,5
84495108,0,7056,5
84514884,0,1369,5
84534636,1849,64,5
84555444,0,11449,5
84576232,22201,16900,5
84601216,441,16,5
84620980,9,484,5
84639692,841,576,5
84660504,225,1,5
84679216,81,256,5
84698968,256,100,5
84719784,0,36,5
84737464,121,121,5
84758260,49,1,5
84775948,49,100,5
84795704,81,36,5
84814424,900,4,5
84833116,25600,0,5
84853936,15376,0,5
84874728,16833,0,5
84895520,0,0,5
84912152,18225,0,5
84932972,8464,0,5
84952728,0,784,5
84971436,23268,10816,5
84996424,0,16833,5
85017200,22500,0,5
85038000,11664,676,5
85060912,4,1,5
85077532,400,1024,5
85099368,784,324,5
85120180,4,121,5
85138900,361,361,5
85159700,121,0,5
85178416,100,225,5
85199212,225,64,5
85218980,0,49,5
85236656,144,121,5
85257464,36,0,5
85275152,16,81,5
85293884,64,0,5
85311536,0,27889,5
85332340,0,4900,5
85352112,1521,4,5
85371844,7921,289,5
85393684,1681,0,5
85413464,0,0,5
85430080,11328,3969,5
85454028,23268,28900,5
85478968,7744,1444,5
85501836,17956,18496,5
85526804,0,0,5
85543440,6569,20548,5
85567368,17408,31876,5
85592320,6889,0,5
85612092,7921,121,5
85633924,9801,0,5
85653692,7921,0,5
85673424,31684,11236,5
85698400,0,0,5
85715048,0,22801,5
85735844,28900,1225,5
85759764,4900,900,5
85781624,361,289,5
85802420,64,49,5
85821144,16,0,5
85838824,4,4,5
85855468,1,0,5
85872092,19321,0,5
85892892,6724,0,5
85912656,121,1089,5
85934492,2064,30625,5
85958400,26569,0,5
85979220,4489,121,5
86001064,25,25,5
86019780,0,81,5
86037452,100,100,5
86058268,36,1,5
86075940,9,36,5
86093616,18496,625,5
86116496,0,5929,5
86136232,7744,3844,5
86159136,49,1,5
86176820,49,9,5
86194508,81,100,5
86214260,10609,5625,5
86238148,26569,27556,5
86263140,1444,9216,5
86286004,0,0,5
86302640,5089,29968,5
86326568,26880,16836,5
86351516,4900,0,5
86371276,8281,4,5
86391060,169,36,5
86410828,1,16,5
86428500,16,25,5
86447232,9,4,5
86463868,24964,144,5
86486716,15689,3600,5
86510652,15129,2809,5
86534556,11664,0,5
86555368,625,0,5
86574096,5753,3364,5
86596968,0,1600,5
86616720,6724,2025,5
86639624,64,49,5
86658352,0,9,5
86674980,36,16,5
86693700,16,9,5
86711368,0,0,5
86728004,24649,0,5
86748804,4356,64,5
86769608,25,36,5
86788348,25,0,5
86806040,2401,196,5
86827852,11449,144,5
86850748,1444,289,5
86872596,0,4356,5
86892320,13328,12100,5
86917292,0,0,5
86933916,23409,0,5
86954736,14641,9,5
86975532,15129,169,5
86998420,1089,961,5
87020260,16,1,5
87037924,0,25,5
87055628,49,36,5
87074340,25,1,5
87092000,0,6889,5
87111776,0,2209,5
87131540,100,12996,5
87154400,0,0,5
87171040,0,0,5
87187688,8281,2500,5
87210564,361,11881,5
87233436,0,0,5
87250108,0,0,5
87266724,8649,0,5
87286492,4900,1089,5
87309384,1521,49,5
87330180,25,225,5
87349928,441,324,5
87370732,49,16,5
87389468,169,289,5
87410260,196,36,5
87430024,0,81,5
87447696,7312,8100,5
87470560,27889,5329,5
87494492,0,0,5
87511148,31684,0,5
87531940,7225,24336,5
87555832,8836,0,5
87575616,144,28900,5
87598492,6561,361,5
87620340,169,100,5
87641128,9,1225,5
87660896,3364,961,5
87682752,169,31684,5
87705620,0,14641,5
87726404,30976,11025,5
87751384,121,225,5
87772172,196,7225,5
87794012,0,1849,5
87813768,0,8281,5
87833524,4225,49,5
87854336,7569,64,5
87875136,784,256,5
87895940,25,49,5
87914672,16,25,5
87933388,16,1,5
87951048,0,0,5
87967680,24649,0,5
87988484,5041,0,5
88008256,121,49,5
88028004,25,24025,5
88049860,7056,5753,5
88072716,961,17408,5
88095612,64,15376,5
88117460,2116,2500,5
88140340,361,36,5
88160104,144,144,5
88180900,25,9,5
88198580,100,169,5
88219380,81,25,5
88238108,1,36,5
88255780,64,64,5
88274500,25,1,5
88292176,17956,14400,5
88317132,0,0,5
88333772,5041,14161,5
88357708,1849,4,5
88377468,36,9,5
88395156,9,1,5
88411776,6889,19881,5
88435664,19321,9540,5
88459616,100,17424,5
88482504,0,13225,5
88503308,8649,169,5
88525120,2209,10404,5
88549052,1369,100,5
88570900,121,1156,5
88592728,0,23716,5
88613520,0,30976,5
88634328,4624,81,5
88655152,144,25,5
88674896,64,100,5
88694652,25,0,5
88712348,676,4,5
88731036,29929,100,5
88753940,5089,4489,5
88776812,24964,5929,5
88800736,225,4,5
88819452,1296,36,5
88840260,529,169,5
88861060,15876,16,5
88882900,81,0,5
88900548,0,0,5
88917216,3025,0,5
88936980,5329,1,5
88956740,0,676,5
88975464,529,121,5
88996264,0,121,5
89014980,324,324,5
89035780,121,1,5
89054508,49,144,5
89074260,169,49,5
89094012,0,49,5
89111708,81,100,5
89131452,1764,16,5
89152252,7225,729,5
89174108,2025,144,5
89195944,1,9,5
89212580,100,36,5
89232340,1,9,5
89248972,0,0,5
89265604,21316,0,5
89286408,5329,49,5
89307216,1,225,5
89325944,49,9,5
89343620,81,361,5
89363396,100,1,5
89382116,324,0,5
89400820,31684,0,5
89421620,0,23377,5
89442404,20736,29929,5
89467364,24649,3249,5
89491288,25921,0,5
89512096,5329,0,5
89531848,6400,784,5
89553700,36,169,5
89573468,144,49,5
89593220,4,36,5
89610908,144,196,5
89631684,961,1,5
89650416,16641,24649,5
89675356,8649,0,5
89695128,4489,21904,5
89719060,2704,144,5
89740900,1,400,5
89759624,256,25,5
89779384,25,196,5
89799132,676,400,5
89819924,8100,324,5
89841776,0,0,5
89858412,0,27121,5
89879208,6084,0,5
89898964,7744,196,5
89920836,2304,0,5
89940580,12100,0,5
89961376,4489,3600,5
89984252,13456,289,5
90007128,14641,1936,5
90031036,31684,0,5
90051844,12996,0,5
90072660,5329,729,1
90094480,676,4,1
90113232,4,25,1
90130892,16384,36,1
90152728,0,1600,1
90172480,7056,2304,1
90195380,0,1,1
90212016,25,9,1
90229684,0,17956,1
90250524,0,11025,1
90271276,11025,0,1
90292088,529,0,1
90310824,2601,1,1
90330580,4225,676,1
90352408,5041,441,1
90374260,625,1849,1
90396084,729,484,1
90416888,144,25,1
90436668,361,625,1
90457460,441,64,1
90477216,4,196,1
90495920,324,225,1
90516748,49,9,1
90534428,121,196,1
90555220,121,16,1
90574988,1,64,1
90592660,100,100,1
90613464,9,1,1
90630096,49,81,1
90648816,0,21904,1
90669620,0,9409,1
90689384,3969,100,1
90711200,169,0,1
90729908,10609,29584,1
90754888,16900,4225,1
90778824,11449,4900,1
90802712,0,0,1
90819360,0,31808,1
90840172,0,27225,1
90860976,3844,484,1
90882808,19600,2401,1
90906720,6084,7056,1
90929600,7364,0,1
90949384,18769,0,1
90970176,9025,0,1
90989944,169,9,1
91008632,0,0,1
91025284,20736,30276,1
91050232,32041,0,1
91071040,4225,0,1
91090808,0,961,1
91109528,2500,1369,1
91132416,1369,49,1
91153204,841,625,1
91174020,1,1,1
91190672,64,169,1
91210412,5041,36,1
91231204,5329,324,1
91253064,49,484,1
91272820,4,81,1
91290500,1,16,1
91308180,0,0,1
91324800,13225,0,1
91345612,7056,1,1
91365364,1,256,1
91384100,49,16,1
91402820,81,169,1
91422580,169,64,1
91442344,0,36,1
91460032,15876,256,1
91482880,0,4900,1
91502656,6241,3249,1
91525540,0,36,1
91543224,81,1,1
91560896,2401,64,1
91581708,3249,529,1
91603532,961,361,1
91624340,49,64,1
91643072,64,4,1
91660756,529,361,1
91681528,324,4096,1
91703384,31329,2304,1
91727296,0,15625,1
91748100,2025,28224,1
91772024,2116,11881,1
91795932,484,529,1
91816744,4,0,1
91833364,18225,1681,1
91857288,22500,6724,1
91881224,9801,3600,1
91904112,5041,9,1
91923868,1089,961,1
91945716,196,36,1
91965484,9,9,1
91982112,4,9,1
91998760,1,0,1
92015380,0,0,1
92032032,0,0,1
92048672,1,0,1
92065304,0,11236,1
92086092,121,7744,1
92107948,841,3249,1
92129780,0,4356,1
92149544,625,9409,1
92171376,49,625,1
92191136,7744,1369,1
92214008,18225,25600,1
92238980,4489,0,1
92258736,484,31329,1
92281628,100,9,1
92300344,16,2116,1
92321152,2116,25,1
92341940,13924,225,1
92364824,15625,5184,1
92388724,11748,1600,1
92412664,14553,25281,1
92437608,2304,121,1
92459428,1681,9216,1
92482332,13456,2304,1
92506256,30625,8100,1
92530188,4900,16,1
92550964,10609,19728,1
92575924,2500,28224,1
92599856,9801,0,1
92619616,0,32400,1
92640416,7396,169,1
92662260,2500,529,1
92684100,2500,1936,1
92706976,576,27889,1
92729848,64,2401,1
92750644,1296,11449,1
92774568,121,324,1
92795376,784,676,1
92816164,12544,2809,1
92840100,529,23716,1
92862988,3481,1600,1
92885860,0,8836,1
92905624,32041,1849,1
92929540,15625,0,1
92950328,196,4356,1
92972172,7744,3364,1
92995052,1089,9,1
93014816,529,961,1
93035616,4624,256,1
93057452,9216,19321,1
93081384,21904,8464,1
93105308,18225,5041,1
93129216,23104,0,1
93149988,10201,0,1
93170812,4624,121,1
93192644,625,256,1
93213436,2025,676,1
93235292,0,324,1
93254004,5329,64,1
93274816,961,121,1
93295592,15376,169,1
93318504,1296,0,1
93338264,11449,0,1
93359060,16,1369,1
93379876,961,729,1
93400660,900,1681,1
93422496,729,841,1
93443304,1156,49,1
93464100,22801,100,1
93486960,4096,9604,1
93509844,4900,841,1
93531680,1521,1849,1
93554568,3025,1369,1
93577452,2304,23409,1
93601376,20449,3600,1
93625288,0,12769,1
93646092,289,10404,1
93668968,169,1849,1
93690788,4624,3136,1
93713684,2025,1024,1
93736572,81,11881,1
93758424,49,9,1
93776100,6889,0,1
93795856,0,13225,1
93816656,1681,11236,1
93840592,6084,9,1
93860336,5776,8100,1
93883232,9,1,1
93899856,1369,64,1
93920668,961,81,1
93940424,225,100,1
93961236,361,9,1
93979948,625,1,1
93998656,256,16,1
94018420,729,4,1
94037148,441,9,1
94055852,7744,8464,1
94078728,19600,0,1
94099552,729,10201,1
94122420,676,36,1
94142184,121,1,1
94160908,529,81,1
94180664,1849,64,1
94201472,1764,9,1
94221220,144,64,1
94240988,256,529,1
94261792,3721,3481,1
94284664,0,3249,1
94304424,5753,81,1
94325232,0,144,1
94343940,0,21025,1
94364744,32761,13924,1
94389672,400,29929,1
94412552,4489,0,1
94432336,361,64,1
94452112,529,81,1
94471844,196,25,1
94491596,225,1225,1
94513460,841,9,1
94532184,2809,4,1
94551920,1600,3249,1
94574804,23409,2209,1
94598732,32400,25281,1
94623684,6241,0,1
94643456,64,8281,1
94664260,15876,10404,1
94689200,2401,29584,1
94713120,3136,25600,1
94737044,6889,28900,1
94760980,1849,6724,1
94783864,6561,2025,1
94806732,0,0,1
94823380,2025,0,1
94843140,32761,21316,1
94868072,22500,0,1
94888888,100,0,1
94907612,6241,1,1
94927380,2116,841,1
94949204,1225,3969,1
94972080,1681,1089,1
94994972,784,14884,1
95017856,64,400,1
95037624,961,12100,1
95060504,0,81,1
95078176,36,81,1
95096900,324,169,1
95117708,1600,0,1
95137460,441,1089,1
95159312,961,4624,1
95181148,676,900,1
95201940,900,0,1
95220652,576,64,1
95240424,121,0,1
95259144,196,4,1
95277864,400,64,1
95297632,841,144,1
95318440,16,625,1
95338180,289,256,1
95358972,64,100,1
95378744,625,36,1
95398496,729,36,1
95418260,36,16,1
95436984,49,1,1
95454656,1225,4225,1
95477536,4761,10816,1
95501476,441,144,1
95522264,8281,1296,1
95545124,4225,14161,1
95569048,8836,1024,1
95591936,13924,7225,1
95615872,900,31684,1
95638740,961,14884,1
95661612,6561,3364,1
95684500,16900,2916,1
95708408,0,324,1
95727156,441,36,1
95746892,3969,25,1
95767700,5776,324,1
95789512,6724,729,1
95811348,4489,100,1
95833216,12544,676,1
95856084,18225,10816,1
95881052,3481,14641,1
95904968,8649,19044,1
95928892,841,2025,1
95950752,7921,529,1
95972580,2500,81,1
95993352,2304,11449,1
96017288,900,400,1
96038104,9409,289,1
96059944,441,6084,1
96081776,441,841,1
96102588,225,7225,1
96124420,8100,2401,1
96147292,2500,100,1
96169132,4,784,1
96187836,5329,225,1
96209680,4096,4,1
96229440,144,324,1
96250248,361,4,1
96268968,2500,1,1
96288736,0,16,1
96306416,225,0,1
96325152,225,676,1
96345944,1225,2704,1
96368812,81,225,1
96388568,400,529,1
96409356,9,1225,1
96429148,81,4356,1
96449940,841,7225,1
96471776,2209,6400,1
96494660,2601,11881,1
96518576,25,15376,1
96540424,3969,4,1
96560192,441,256,1
96580992,484,1089,1
96602820,361,6561,1
96624668,1024,400,1
96646524,9,784,1
96665232,64,1369,1
96686016,64,676,1
96705796,100,2500,1
96727620,1681,15129,1
96751528,400,10201,1
96774428,7396,20164,1
96798340,625,26244,1
96821212,2601,10816,1
96845148,900,9,1
96863856,1296,11025,1
96887772,4900,6400,1
96910656,1369,2704,1
96933540,12544,25600,1
96958512,1936,6084,1
96981388,36,6561,1
97002176,0,169,1
97020884,25065,1156,1
97044816,15376,21904,1
97069772,1089,5776,1
97092652,6084,26896,1
97116588,1024,25,1
97137376,5625,5329,1
97160264,2500,5625,1
97183136,576,841,1
97203936,841,5776,1
97225800,0,256,1
97244500,1024,2601,1
97267380,289,841,1
97288176,144,225,1
97308984,9,1600,1
97328724,324,441,1
97349536,16,169,1
97369292,25,625,1
97389048,36,225,1
97408804,225,1,1
97427548,2304,625,1
97449364,1600,3025,1
97472264,441,31684,1
97495144,729,7225,1
97516976,2209,729,1
97538820,0,2500,1
97558596,400,0,1
97577300,1849,1849,1
97600184,16,13456,1
97622008,121,5329,1
97643860,289,8281,1
97665708,25,3721,1
97686484,784,5041,1
97708328,2704,1681,1
97731208,3969,1764,1
97754088,196,19321,1
97776980,196,20736,1
97799852,2500,12544,1
97823780,25,1764,1
97844592,2916,361,1
97866432,25,2116,1
97887220,961,0,1
97905948,1849,2500,1
97928816,121,3969,1
97950648,3249,2809,1
97973548,3025,22500,1
97997464,2601,16900,1
98021368,729,15625,1
98044276,14400,49,1
98066096,12321,3481,1
98090028,1089,3025,1
98112900,1369,5929,1
98135776,3969,11025,1
98159696,5184,12321,1
98183612,169,4900,1
98205464,5776,1,1
98225212,36,1369,1
98246024,16,6724,1
98266808,784,81,1
98286564,961,324,1
98307372,841,1296,1
98329196,64,0,1
98346876,2116,576,1
98368744,225,9,1
98387468,2601,25,1
98408260,1225,441,1
98430120,64,529,1
98449860,1600,961,1
98471708,2704,6084,1
98494600,100,4096,1
98516432,1764,2209,1
98539304,4761,225,1
98561140,4900,11236,1
98585072,64,2809,1
98605868,225,1849,1
98627692,1156,961,1
98649544,441,8836,1
98671396,36,2916,1
98692192,25,2809,1
98712988,784,81,1
98732756,324,2809,1
98754600,49,81,1
98773308,576,2209,1
98795144,529,1764,1
98816992,484,1,1
98835708,0,36,1
98853388,1089,400,1
98875224,441,1156,1
98897076,400,529,1
98917864,4761,1681,1
98940744,5184,100,1
98962592,256,784,1
98983380,1600,9025,1
99006272,441,6084,1
99028096,529,3025,1
99049940,1,10000,1
99070740,729,256,1
99091540,1369,2209,1
99114420,49,256,1
99134180,441,4356,1
99156036,25,3025,1
99176836,144,2116,1
99198664,2116,49,1
99219436,14884,729,1
99242328,24649,17161,1
99267280,17689,5329,1
99291216,8836,0,1
99310972,0,26569,1
99331760,2401,3844,1
99354672,225,324,1
99375468,841,3600,1
99397304,256,2304,1
99419148,2916,3136,1
99442024,7569,1681,1
99464904,1936,729,1
99486756,289,1681,1
99508588,16,289,1
99528348,1225,36,1
99549120,16,1444,1
99569956,36,2304,1
99590748,225,81,1
99610496,484,9216,1
99632344,576,7225,1
99654188,64,49,1
99672916,4,1936,1
99692672,169,3025,1
99714492,400,1521,1
99736348,64,576,1
99756116,9,400,1
99774844,324,81,1
99794584,0,1764,1
99814344,4,441,1
99833072,324,1296,1
99854912,36,625,1
99874676,9,100,1
99893404,16,9,1
99911068,36,2809,1
99931868,9,8649,1
99951640,484,1849,1
99973472,1024,225,1
99995304,784,49,1
100015060,676,9,1
100034828,900,9,1
100054576,225,169,5
100076428,49,4,5
100095152,0,36,5
100113872,49,1024,5
100135716,0,1681,5
100156520,0,289,5
100176272,441,8100,5
100199140,25,3721,5
100220984,4761,15376,5
100245940,3136,1681,5
100269852,1849,24336,5
100294820,2500,361,5
100317700,64,10404,5
100340572,4489,9025,5
100364488,2401,2304,5
100388400,27225,16384,5
100414408,22201,1,5
100436260,36,6724,5
100458100,2304,144,5
100480972,324,9,5
100500744,2401,2116,5
100524668,64,81,5
100544404,1849,5329,5
100568336,4761,9801,5
100592260,3364,2401,5
100616172,7056,1225,5
100640100,1444,29929,5
100665060,100,12321,5
100688988,4096,12321,5
100713960,441,9,5
100733704,196,2809,5
100756600,729,8649,5
100779460,361,1,5
100799216,3136,7225,5
100823132,49,7225,5
100844980,9,1089,5
100865780,169,81,5
100886584,841,6889,5
100909460,121,1156,5
100932336,169,1849,5
100955244,1681,841,5
100978104,2116,5476,5
101002016,1444,625,5
101024912,1600,1764,5
101048828,169,7744,5
101071700,900,441,5
101093536,4624,2500,5
101117472,961,729,5
101139284,256,4761,5
101162200,100,121,5
101184024,1600,7569,5
101207948,36,5041,5
101229796,441,289,5
101251620,576,6241,5
101274504,121,484,5
101296352,441,9216,5
101319224,100,361,5
101341056,841,1156,5
101363952,484,900,5
101385776,1444,289,5
101408664,1089,0,5
101429460,841,32400,5
101453372,4900,6084,5
101477292,10201,18225,5
101503304,0,25,5
101522016,20449,2916,5
101546968,196,100,5
101568816,484,16641,5
101592756,3969,2601,5
101616672,2401,8836,5
101640576,5625,6400,5
101664500,2304,4356,5
101688424,11664,14400,5
101714420,4489,144,5
101737296,3025,12100,5
101762276,49,324,5
101783060,169,4489,5
101805948,49,1296,5
101827780,10201,1681,5
101852740,2500,11881,5
101877680,4624,0,5
101898500,13689,25281,5
101924468,21025,0,5
101946308,841,12321,5
101970232,0,13225,5
101992084,19600,729,5
102016020,0,10000,5
102037852,0,3600,5
102058640,24025,18225,5
102084668,7056,225,5
102107532,6889,1521,5
102131452,16384,961,5
102155376,0,196,5
102175148,1296,961,5
102198024,2025,36,5
102219876,3136,0,5
102240652,1849,17161,5
102265604,2704,15876,5
102290576,0,0,5
102308252,0,17153,5
102330064,4225,3249,5
102354000,1024,19145,5
102378976,0,0,5
102396652,0,4624,5
102417480,19145,10609,5
102443428,16900,21025,5
102469432,15129,0,5
102491280,529,28224,5
102515204,6241,14400,5
102540176,0,0,5
102557860,0,121,5
102577620,27332,13225,5
102603600,0,6889,5
102624420,36,11025,5
102647292,3481,324,5
102670164,1225,0,5
102690976,14641,24649,5
102716992,0,2601,5
102737768,0,289,5
102757552,0,3721,5
102778332,0,5041,5
102799112,0,0,5
102816820,19881,2809,5
102841760,6288,18564,5
102866700,0,4160,5
102887560,0,3249,5
102908328,14089,1521,5
102933280,31684,19321,5
102959288,0,0,5
102976960,3633,0,5
102997776,2500,900,5
103020644,20164,0,5
103042476,9409,17956,5
103067456,13689,23104,5
103093456,100,1296,5
103116340,31329,19881,5
103142304,3025,0,5
103163136,7225,0,5
103183928,2209,100,5
103206828,16,49,5
103226588,441,1296,5
103249448,0,513,5
103269204,28900,0,5
103291068,10816,1,5
103312900,2809,9,5
103333704,49,361,5
103354500,25,4,5
103373224,0,4,5
103390916,484,4,5
103410656,841,16,5
103431464,121,81,5
103452260,4,4,5
103469944,0,1,5
103487636,0,12996,5
103509452,0,0,5
103527120,10816,30564,5
103553140,0,0,5
103570808,5625,0,5
103591612,6561,4,5
103612404,16,841,5
103633208,529,100,5
103655060,0,144,5
103674816,361,289,5
103696668,0,441,5
103716416,27225,5041,5
103741364,1,0,5
103759056,196,23409,5
103782976,9604,256,5
103805848,2704,9,5
103826656,11025,12544,5
103852648,0,13225,5
103874496,0,30276,5
103896340,9604,441,5
103919220,29328,2401,5
103944152,15120,11193,5
103970168,28100,14073,5
103996156,5329,0,5
104016992,27489,27489,5
104042948,0,4689,5
104063776,9409,29929,5
104088740,0,0,5
104106424,0,528,5
104126192,1089,0,5
104146988,11664,3136,5
104171944,17689,1444,5
104196884,0,0,5
104214576,25281,24336,5
104240548,0,27889,5
104262384,4225,18769,5
104287376,729,0,5
104307144,1600,0,5
104327928,4,81,5
104346668,0,121,5
104366412,24964,4096,5
104391376,0,64,5
104410084,21904,8649,5
104435072,361,36,5
104455852,0,529,5
104475608,5041,1296,5
104499528,0,0,5
104517196,6825,0,5
104538004,21316,4900,5
104562972,10000,1764,5
104587924,0,7921,5
104608720,0,1849,5
104629532,529,2809,5
104652404,400,3844,5
104675300,0,121,5
104695064,4160,4761,5
104718948,19044,8993,5
104743920,3481,24649,5
104768908,0,0,5
104786560,0,0,5
104804240,2116,17424,5
104829220,0,0,5
104846892,28561,6825,5
104871844,12996,0,5
104893700,2401,0,5
104914484,1936,1521,5
104938396,0,0,5
104956056,14852,0,5
104977936,18564,9025,5
105002880,23104,5776,5
105027872,4489,0,5
105048644,3844,28900,5
105073608,27556,4624,5
105098556,5625,0,5
105119384,64,0,5
105138076,17424,2916,5
105163056,676,25,5
105183856,9,36,5
105202572,225,169,5
105224428,64,1,5
105243144,36,100,5
105263952,121,1225,5
105286836,5625,27225,5
105311764,8649,29584,5
105336712,23268,7905,5
105361704,361,0,5
105381452,15625,576,5
105405372,16641,18496,5
105431384,529,3249,5
105454236,10201,6241,5
105479208,0,0,5
105496904,0,4160,5
105517696,16,5184,5
105539536,576,196,5
105561380,5329,81,5
105583208,1225,4,5
105604000,12100,4,5
105625864,15625,16900,5
105651844,12100,81,5
105674732,5753,30976,5
105699688,256,14884,5
105723600,5625,27889,5
105748576,6288,0,5
105769356,21609,0,5
105791212,4356,100,5
105814096,36,900,5
105834892,0,625,5
105854672,7056,81,5
105876496,0,15625,5
105898332,0,1156,5
105919128,15376,5041,5
105944112,676,64,5
105964908,100,10609,5
105988800,16384,3481,5
106013796,0,0,5
106031468,22080,0,5
106053296,9801,28900,5
106078240,11236,0,5
106100100,100,0,5
106119852,11664,289,5
106143788,36,4356,5
106165636,3721,9409,5
106189548,1089,13924,5
106214512,5220,2209,5
106238404,16129,32400,5
106264436,64,0,5
106283124,8836,22201,5
106308084,21904,23268,5
106334100,0,0,5
106351772,22673,7569,5
106376732,7312,20900,5
106401664,20449,0,5
106423540,9025,289,5
106446408,0,0,5
106464112,12569,0,5
106485936,9540,0,5
106506736,14400,5476,5
106531684,400,0,5
106551456,100,3136,5
106574352,0,2601,5
106595132,24336,15876,5
106621124,1089,0,5
106641932,1,13689,5
106663764,22801,4,5
106685600,5625,0,5
106706408,29584,4689,5
106731368,1225,0,5
106752176,64,6561,5
106774012,23104,20449,5
106800004,2601,0,5
106820808,6889,13225,5
106845784,19600,5625,5
106870712,0,3600,5
106891520,5625,21316,5
106916484,2585,0,5
106937276,19881,0,5
106959140,4096,144,5
106982016,100,961,5
107003856,529,36,5
107024652,12100,19321,5
107050644,400,196,5
107072504,0,18496,5
107094324,25600,27556,5
107120336,16,25281,5
107143220,3600,1,5
107164028,3025,26244,5
107188968,17161,7396,5
107213948,0,4356,5
107234728,0,0,5
107252404,0,528,5
107272148,3721,0,5
107292976,5329,25,5
107314824,0,9025,5
107335600,20449,1296,5
107360568,6400,6400,5
107384496,2401,9216,5
107408404,15689,169,5
107432328,0,10000,5
107454168,6825,0,5
107474972,23104,0,5
107496820,7744,625,5
107519700,81,225,5
107540520,0,484,5
107560256,484,144,5
107582108,256,121,5
107603928,24649,784,5
107627848,1369,9409,5
107651752,2809,20736,5
107676728,11193,0,5
107698564,20449,0,5
107720408,5776,484,5
107743312,1681,8464,5
107767204,0,1,5
107784868,0,0,5
107802572,0,1600,5
107823360,4352,0,5
107844184,0,11881,5
107866012,28224,225,5
107889932,12100,361,5
107913864,0,28900,5
107935672,30276,12769,5
107961696,9216,729,5
107984564,31329,0,5
108006416,20449,0,5
108028260,7396,225,5
108051128,0,121,5
108070912,10201,484,5
108094800,81,0,5
108113524,29584,0,5
108135364,9216,1681,5
108159296,2809,900,5
108182164,20449,361,5
108206068,2401,0,5
108226888,3136,0,5
108247692,3721,25,5
108269536,36,289,5
108290336,4,3025,5
108311128,121,18769,5
108335032,29584,32433,5
108361048,23716,0,5
108382892,14161,121,5
108406808,64,0,5
108425540,9216,0,5
108446332,961,625,5
108468160,2601,64,5
108490024,225,16,5
108510812,484,841,5
108532632,0,0,5
108550336,0,26176,5
108572188,0,0,5
108589864,0,2401,5
108610656,900,1600,5
108633520,5625,0,5
108654320,0,21609,5
108676164,0,7744,5
108696980,361,64,5
108717768,400,81,5
108738576,25,225,5
108759384,361,289,5
108781232,64,121,5
108802024,64,3721,5
108823860,0,16129,5
108845676,29584,0,5
108867536,1369,36,5
108889388,4096,0,5
108910168,16900,1444,5
108935124,12305,1545,5
108960080,24964,0,5
108981956,7396,64,5
109003768,21609,0,5
109025600,4225,22201,5
109050576,0,2209,5
109071392,0,6561,5
109092188,21489,19728,5
109118156,15876,0,5
109140020,10816,0,5
109161868,1600,11236,5
109186792,3249,3136,5
109210756,16833,18496,5
109236732,441,32400,5
109260672,3025,13425,5
109285616,20313,1089,5
109310564,0,27225,5
109332396,22201,15129,5
109358416,576,4624,5
109381292,9216,15625,5
109406248,0,29584,5
109428092,22201,0,5
109449936,4225,2704,5
109473840,22201,6889,5
109498800,1521,26569,5
109523768,0,0,5
109541464,0,16833,5
109563288,0,11664,5
109585132,26244,3249,5
109610112,17689,100,5
109633996,900,0,5
109653760,3136,0,5
109674580,2809,529,5
109697456,196,49,5
109718268,1,1,5
109735944,4,0,5
109753632,1,4,5
109771316,4,0,5
109788952,0,0,5
109806644,0,6084,5
109827460,1296,3249,5
109851368,0,0,5
109869040,0,0,5
109886720,8836,0,5
109907532,6561,196,5
109930416,625,1,5
109950172,16,24964,5
109973040,0,5329,5
109993848,0,10609,5
110015712,484,225,5
110037544,25,4,5
110056264,0,1,6
110073948,0,1,6
110091632,12769,64,6
110114488,0,1764,6
110135276,7056,1521,6
110159224,0,4,6
110176904,64,4,6
110195612,25,81,6
110215392,121,81,6
110236192,16,1,6
110254900,25,49,6
110274668,36,9,6
110293388,1,9,6
110311080,676,11025,6
110334960,576,0,6
110354732,784,9025,6
110377620,1156,16,6
110399456,49,81,6
110419220,36,9,6
110437940,1,121,6
110457688,100,64,6
110478508,9,1,6
110496184,36,49,6
110515940,36,4,6
110534664,1,16,6
110553388,16,25,6
110573140,841,1,6
110592884,2916,256,6
110615780,784,81,6
110636584,0,9,6
110654260,25,9,6
110672992,0,4,6
110690640,0,256,6
110710384,29241,4,6
110732236,0,11664,6
110754080,20164,14641,6
110780096,100,36,6
110800916,256,14884,6
110824808,0,3136,6
110845596,26896,17161,6
110871608,0,0,6
110889312,19600,16836,6
110915288,8281,23377,6
110940260,8100,24649,6
110965216,21904,0,6
110987040,15625,24649,6
111013056,0,2585,6
111033852,18496,0,6
111055692,5476,144,6
111078604,4,25,6
111097312,225,324,6
111119144,900,1089,6
111142000,0,0,6
111159692,2153,30921,6
111184644,31185,11328,6
111210668,0,0,6
111228316,0,8993,6
111249120,5329,28224,6
111274084,1028,27556,6
111299040,0,0,6
111316740,16,36,6
111336504,9,81,6
111355240,6889,0,6
111376000,7396,0,6
111396776,28900,0,6
111418676,3721,24953,6
111443616,3969,0,6
111464408,1369,5041,6
111488360,900,576,6
111510192,16,64,6
111529948,196,196,6
111551804,144,16,6
111572592,16,100,6
111593384,144,81,6
111614204,9,4,6
111631868,36,81,6
111651632,36,1,6
111670360,4,36,6
111689072,49,36,6
111708836,1,9,6
111726508,25,25,6
111746276,16,1,6
111764996,4,196,6
111784752,9,0,6
111802424,2304,324,6
111825316,529,169,6
111847128,9409,324,6
111870012,7056,1521,6
111893920,8836,7225,6
111917840,3844,0,6
111938652,11236,0,6
111960480,3025,9,6
111981280,576,13225,6
112005212,8100,0,6
112026024,289,0,6
112045788,5184,1225,6
112069704,256,2209,6
112092572,1296,441,6
112115460,1681,9604,6
112139380,9025,1225,6
112163284,8100,12100,6
112188244,1444,29929,6
112213196,15129,0,6
112235060,1296,22801,6
112260004,12996,100,6
112283940,5329,81,6
112305784,169,4624,6
112328648,1444,27225,6
112353624,400,3600,6
112376496,9801,1369,6
112400416,1936,9801,6
112424336,576,100,6
112446180,1936,1089,6
112470092,3136,4489,6
112494016,2601,81,6
112515860,12996,2601,6
112540824,784,10201,6
112564736,22201,6724,6
112589684,0,529,6
112609444,13456,169,6
112633376,0,2116,6
112654172,4689,3249,6
112678104,4356,16,6
112699924,1849,2809,6
112723848,15129,1521,6
112748800,5184,3481,6
112772732,0,676,6
112792488,26569,7744,6
112817468,676,1849,6
112840336,0,256,6
112860100,15120,10609,6
112886084,20900,3364,6
112911060,0,8464,6
112931864,15376,20449,6
112957860,841,121,6
112979700,5625,484,6
113002584,3721,225,6
113025468,1764,1849,6
113049380,0,64,6
113068096,0,10000,6
113089928,24964,1764,6
113114908,0,5041,6
113135692,0,4225,6
113156504,196,36,6
113177292,361,400,6
113199140,10609,1089,6
113224088,2209,1521,6
113247996,8649,5184,6
113271944,0,4,6
113289624,0,14400,6
113311476,0,7744,6
113332272,22500,2601,6
113357220,1764,961,6
113380088,0,4761,6
113400884,30976,16900,6
113426896,1444,3481,6
113450812,16900,2209,6
113475784,4096,4225,6
113499700,15625,5929,6
113524640,2500,3844,6
113548592,23268,12544,6
113574560,32400,5329,6
113599520,0,6724,6
113620328,0,6241,6
113641124,3844,9,6
113661936,1089,625,6
113684804,400,729,6
113706628,1089,289,6
113729552,0,400,6
113749312,0,1369,6
113770076,0,1600,6
113790904,697,5776,6
113813776,31684,17689,6
113839764,0,36,6
113858496,0,6400,6
113879304,11664,1849,6
113904240,21609,900,6
113928172,26569,3481,6
113953132,8100,961,6
113976024,3481,4225,6
113999928,0,2704,6
114020744,0,10404,6
114042564,5625,196,6
114065464,0,841,6
114085212,0,6084,6
114106000,29584,2209,6
114130988,0,4225,6
114151776,31808,7569,6
114176728,256,256,6
114198592,12864,81,6
114221460,0,625,6
114241192,21904,5184,6
114266172,64,2209,6
114288028,25,2809,6
114309860,0,36,6
114328580,24025,8836,6
114353544,196,625,6
114375380,64,225,6
114396188,729,256,6
114418036,121,1444,6
114440888,10609,1936,6
114465848,400,1764,6
114488720,6724,2401,6
114512652,0,64,6
114531380,29584,9025,6
114556340,144,81,6
114577140,400,841,6
114598960,0,1024,6
114619780,0,7225,6
114640556,3364,1521,6
114664504,10000,400,6
114688416,25281,484,6
114712340,28224,1936,6
114737316,100,36,6
114758116,529,1296,6
114780972,16900,900,6
114804892,169,1764,6
114827780,7744,1225,6
114851688,0,81,6
114870420,0,5476,6
114891228,2916,9,6
114912024,1,361,6
114931808,1296,529,6
114954636,0,64,6
114973384,0,1600,6
114994188,22801,6889,6
115019120,0,3136,6
115039928,0,11236,6
115061784,196,16,6
115082572,3364,36,6
115104396,1764,81,6
115126228,676,81,6
115147056,0,36,6
115165788,49,1225,6
115187608,3600,225,6
115210508,0,256,6
115230264,24964,6084,6
115255216,361,676,6
115277076,441,100,6
115298888,0,36,6
115317628,11057,9604,6
115342576,0,13225,6
115364392,13225,1225,6
115389388,2585,2704,6
115413308,31684,5776,6
115438236,0,2025,6
115459044,0,8464,6
115479848,14400,1369,6
115504796,1681,2401,6
115528736,0,289,6
115548488,8804,5929,6
115572436,17153,6724,6
115597396,0,6084,6
115618192,0,6400,6
115638972,0,3600,6
115659756,961,1089,6
115682632,11664,225,6
115706568,0,2704,6
115727348,17924,11236,6
115753384,18697,6241,6
115778340,20736,12996,6
115804344,0,2601,6
115825160,31808,6889,6
115850104,24464,5476,6
115875076,17408,2209,6
115900016,0,6724,6
115920800,1681,1024,6
115944724,10000,2500,6
115969696,11025,324,6
115993632,676,2916,6
116016508,9,2116,6
116037304,11664,4,6
116059128,400,2401,6
116082012,121,961,6
116103844,1444,81,6
116125688,28561,324,6
116149620,2704,1849,6
116173548,64,1,6
116192272,1936,256,6
116215152,729,196,6
116236980,1521,256,6
116259864,15876,361,6
116283760,16900,3969,6
116308740,0,1089,6
116329548,31684,8100,6
116354516,9,16,6
116373220,361,100,6
116395060,8281,36,6
116416896,1296,2500,6
116440812,19321,1369,6
116465780,23104,2601,6
116490744,0,361,6
116510508,25921,3364,6
116535472,169,9,6
116555236,9,400,6
116574976,20736,841,6
116598904,11881,196,6
116622812,7921,64,6
116644640,7225,4,6
116665464,400,4,6
116685232,17689,121,6
116709140,1764,144,6
116732032,841,64,6
116752832,1156,100,6
116775704,12100,400,6
116799616,1681,9,6
116820396,7225,1936,6
116844352,729,0,6
116864104,1,1936,6
116884892,576,64,6
116905708,25,144,6
116926492,4356,196,6
116949384,4096,1,6
116970188,11664,3481,6
116995140,0,36,6
117013880,30564,12100,6
117039844,5828,8464,6
117063780,31684,8100,6
117088732,0,729,6
117108484,0,5929,6
117129320,1424,5776,6
117153224,30276,2025,6
117178160,0,900,6
117197956,5828,7744,6
117221840,0,4225,6
117242640,20164,2116,6
117267620,13689,484,6
117291540,484,1369,6
117314432,7396,2025,6
117338344,0,441,6
117358108,4689,9801,6
117382000,0,1089,6
117402796,6724,841,6
117425676,1156,676,6
117448584,26569,16,6
117471484,3481,900,6
117494352,5476,225,6
117517196,0,169,6
117536976,30276,7744,6
117561928,1,81,6
117580656,1,121,6
117600404,400,1089,6
117623296,324,144,6
117645132,25,16,6
117664904,13689,256,6
117688820,1681,361,6
117711708,4096,784,6
117734596,81,1,6
117753308,0,1225,6
117774120,900,49,6
117794904,8100,0,6
117815696,7744,36,6
117837528,14641,676,6
117861448,12321,2601,6
117886416,22801,400,6
117910332,5625,5476,6
117934276,49,9,6
117952996,900,36,6
117973796,4,121,6
117993556,5476,400,6
118016424,36,49,6
118036184,1156,81,6
118058016,81,16,6
118077792,5041,289,6
118100652,576,9,6
118120420,1296,484,6
118143320,21609,1,6
118165116,1545,1681,6
118189084,0,6889,6
118209864,0,4489,6
118230664,4096,1369,6
118254584,3364,1444,6
118278484,24025,4,6
118300332,19600,3136,6
118325292,19321,1369,6
118350260,1024,5476,6
118374172,0,3481,6
118394992,29328,5625,6
118419936,0,2401,6
118440744,0,7225,6
118461524,3969,1764,6
118485464,31684,625,6
118509384,64,2401,6
118531236,7056,49,6
118553068,576,676,6
118574904,3969,169,6
118597788,14400,196,6
118621708,23409,1600,6
118646652,32761,25,6
118669536,18225,4356,6
118694504,64,961,6
118715296,81,676,6
118736100,17161,361,6
118760012,576,1444,6
118782896,8464,121,6
118805780,28900,256,6
118829700,0,7225,6
118850508,12321,1849,6
118875456,31684,361,6
118899368,961,2401,6
118922236,7396,256,6
118945144,24964,9,6
118966980,2704,4356,6
118990916,100,16,6
119011716,900,64,6
119032496,0,0,6
119050176,697,7056,6
119073056,0,6561,6
119093864,8836,36,6
119115688,0,729,6
119135472,0,7744,6
119156256,0,1444,6
119177044,1156,169,6
119199928,4096,49,6
119221804,529,121,6
119243620,1936,1521,6
119267536,5929,1369,6
119291468,5041,1444,6
119315372,9025,1296,6
119339292,5476,1681,6
119363212,3249,5929,6
119387128,0,4,6
119404824,0,11881,6
119426668,27489,4900,6
119451604,20164,1521,6
119476588,17956,36,6
119499456,14400,4900,6
119524416,27225,81,6
119547304,15129,7396,6
119572268,9,1,6
119589956,2116,484,6
119612832,225,1296,6
119635688,14884,441,6
119659616,1,225,6
119679380,12321,1600,6
119704336,22500,36,6
119727216,14400,1369,6
119752200,2809,4,6
119772992,1936,1024,6
119796896,0,121,6
119816656,17424,7396,6
119841612,100,100,6
119863456,3721,0,6
119884248,169,3844,6
119907144,29241,784,6
119931072,18769,961,6
119954972,27225,9,6
119976832,1936,2916,6
120000744,784,1,6
120020496,441,1,6
120040252,169,484,6
120062104,144,4,4
120081864,576,361,4
120103716,36,900,4
120124508,5929,169,4
120147392,361,25,4
120168192,5476,1521,4
120192112,196,900,4
120213944,8649,0,4
120234740,961,1369,4
120257620,12769,1444,4
120282568,10404,2500,4
120307540,0,121,4
120327308,30625,3844,4
120352280,1,16,4
120370988,0,225,4
120390760,225,441,4
120412580,32041,36,4
120435472,0,529,4
120455224,8281,1296,4
120479148,81,49,4
120498884,2304,36,4
120520736,36,0,4
120539452,0,81,4
120558172,5476,0,4
120578984,10000,841,4
120602892,784,784,4
120624740,11449,729,4
120648652,3249,729,4
120671552,1024,25,4
120693384,2704,576,4
120716244,0,9,4
120733928,24964,6241,4
120758892,4,49,4
120777612,4624,361,4
120800484,6084,1764,4
120824428,12864,1521,4
120849376,0,2500,4
120870196,6084,784,4
120893060,36,64,4
120912808,1225,9,4
120933636,1444,9,4
120954428,1600,36,4
120976248,289,576,4
120998088,2025,81,4
121019940,2500,36,4
121041784,4225,529,4
121064668,16641,841,4
121088576,169,256,4
121110428,3600,961,4
121133312,1296,16,4
121155128,0,196,4
121174912,27489,8836,4
121199864,22201,3249,4
121224820,3364,625,4
121247696,256,1296,4
121270584,225,900,4
121292424,49,900,4
121313224,3969,1,4
121334040,1156,1,4
121354816,484,81,4
121375604,576,3481,4
121398492,3969,5184,4
121422416,4489,10000,4
121447372,1444,7056,4
121471312,144,225,4
121493128,196,5776,4
121516012,961,17689,4
121539960,36,1156,4
121561792,361,1600,4
121584668,121,6561,4
121607540,441,5625,4
121630424,729,324,4
121652272,0,1600,4
121673068,144,1521,4
121695956,9,3481,4
121716748,144,11449,4
121740668,900,23716,4
121764576,484,900,4
121786428,6561,3481,4
121810348,11449,289,4
121834264,484,3481,4
121857132,8649,7056,4
121881064,676,1369,4
121903944,784,4096,4
121926796,0,6241,4
121947608,20164,2025,4
121972592,0,0,4
121990264,32041,6889,4
122015208,6724,5329,4
122039136,81,5041,4
122060980,13988,900,4
122084868,15625,24336,4
122110864,10609,4624,4
122135876,1024,5089,4
122159784,361,7056,4
122182672,256,22801,4
122206572,5625,2401,4
122230476,2916,4624,4
122254420,1156,0,4
122275216,1225,0,4
122296008,11449,2401,4
122320984,625,0,4
122340748,144,20736,4
122364628,10201,0,4
122386508,9801,0,4
122407308,7569,361,4
122430172,4356,2704,4
122454072,14400,2704,4
122479040,13456,6561,4
122504004,256,18769,4
122527968,2064,121,4
122550804,0,1444,4
122571628,625,7905,4
122594508,12321,0,4
122616356,1225,1,4
122637136,1681,361,4
122660028,2116,9,4
122680796,0,12100,4
122702640,0,28100,4
122724468,0,0,4
122742164,24025,4,4
122764008,1849,10609,4
122788972,0,841,4
122808720,23716,6724,4
122833712,144,0,4
122853452,676,0,4
122873228,4225,0,4
122893996,12321,6084,4
122918964,14400,4761,4
122943936,0,4761,4
122964720,14884,21025,4
122990760,196,24464,4
123014672,11664,10609,4
123040660,784,0,4
123060440,1369,12305,4
123085372,3481,0,4
123106184,400,26569,4
123130096,7396,6889,4
123153992,26244,32400,4
123180004,14641,4761,4
123204956,31684,4689,4
123229948,2601,0,4
123250748,18769,196,4
123274640,0,16641,4
123296476,19321,23716,4
123322508,1028,5184,4
123346416,0,9,4
123364096,81,8281,4
123385944,18496,784,4
123409856,17424,13456,4
123435848,4356,2064,4
123459780,18496,30976,4
123485744,21316,961,4
123509680,11236,0,4
123531536,4489,23104,4
123556484,12769,4761,4
123581460,11449,24649,4
123607460,9,13225,4
123629304,6400,324,4
123652188,1089,2500,4
123676084,8100,2025,4
123700000,400,29929,4
123723940,0,729,4
123743696,0,4900,4
123764504,1089,9,4
123785308,144,25,4
123806108,9,784,4
123825856,5329,4489,4
123849792,5625,6561,4
123873672,0,31684,4
123895532,0,23104,4
123917368,5041,11236,4
123942348,4160,0,4
123963140,7364,0,4
123983952,15876,12996,4
124009900,0,4096,4
124030732,0,2116,4
124051544,23716,20313,4
124077512,0,0,4
124095196,0,1156,4
124116028,28561,5476,4
124140948,16384,24336,4
124166972,19472,19600,4
124192992,0,0,4
124210656,529,29328,4
124234584,1024,8448,4
124258496,15625,16384,4
124284472,21025,0,4
124306312,0,3969,4
124327124,0,16900,4
124348976,2500,5476,4
124372888,25,8464,4
124394724,5476,20449,4
124419696,13456,5329,4
124444656,0,8649,4
124465460,29584,0,4
124487296,900,13689,4
124511208,5184,0,4
124532016,12769,7569,4
124556968,22201,14400,4
124582980,0,2116,4
124603776,21025,5329,4
124628748,1156,900,4
124651608,0,0,4
124669308,0,26537,4
124691120,13988,17985,4
124717128,7396,1225,4
124741032,3136,0,4
124761848,0,8100,4
124782668,0,1,4
124800320,0,26569,4
124822168,4689,32400,4
124847132,1936,324,4
124870028,12544,28900,4
124896000,0,5329,4
124916808,0,30276,4
124938660,961,484,4
124960504,13689,10404,4
124986500,1444,2116,4
125010432,5329,0,4
125031220,14884,2209,4
125056164,729,17956,4
125080112,0,0,4
125097772,6569,0,4
125118572,28900,0,4
125140432,289,1936,4
125163288,17424,8836,4
125188268,13924,0,4
125210076,0,6241,4
125230920,2884,256,4
125253784,29945,676,4
125277692,17689,0,4
125299520,1936,0,4
125320336,26896,1089,4
125345292,23104,11025,4
125371292,25281,0,4
125393152,18225,0,4
125414984,1156,2916,4
125438884,2704,0,4
125459688,8100,32400,4
125484652,21904,9216,4
125509612,3249,14641,4
125534556,28224,3969,4
125559552,0,9801,4
125580320,27556,3721,4
125605308,22080,1,4
125627128,0,9,4
125644828,225,4900,4
125667692,3364,1521,4
125691616,4356,0,4
125712420,12544,29584,4
125738404,2601,3721,4
125762344,12864,10609,4
125788356,27889,0,4
125810196,3481,729,4
125833064,0,36,4
125851772,22801,7225,4
125876756,3364,1,4
125897532,2601,36,4
125919384,21025,3364,4
125944360,225,16,4
125965148,12544,9216,4
125990084,0,12100,4
126011916,22801,24649,4
126037916,1521,169,4
126060844,0,15625,4
126082648,0,0,4
126100340,2116,1,4
126121136,1156,4624,4
126145048,7056,6724,4
126168968,21025,0,4
126190836,256,1764,4
126213692,256,2209,4
126236564,3025,0,4
126257396,441,0,4
126277132,10816,64,4
126300020,2500,3364,4
126323944,2401,1681,4
126347856,2209,1089,4
126371748,11193,29929,4
126397784,22801,7905,4
126422724,0,169,4
126442484,3844,7921,4
126466444,1849,1369,4
126490348,3249,17161,4
126515284,0,6561,4
126536092,0,25921,4
126557928,3721,1225,4
126581860,25921,484,4
126605776,1089,3481,4
126629696,16384,16129,4
126655684,24964,5476,4
126680660,5089,15625,4
126705620,11025,2025,4
126730572,19044,0,4
126752392,12996,24649,4
126778400,31329,7569,4
126803368,0,0,4
126821056,0,17424,4
126842916,484,961,4
126864752,289,169,4
126886576,3481,6889,4
126910516,7225,169,4
126933372,18769,1444,4
126958328,0,32400,4
126980188,6084,22201,4
127005136,5184,8836,4
127029064,7056,13988,4
127054008,2809,27889,4
127078976,9540,18769,4
127103916,19881,4096,4
127128900,11025,0,4
127150716,4,0,4
127168412,0,2116,4
127189204,0,15625,4
127211060,7744,361,4
127233944,4,2401,4
127254736,289,1936,4
127277592,2601,6400,4
127301528,0,32041,4
127323376,9216,21025,4
127348332,28561,17424,4
127374352,2401,5041,4
127398260,16833,27889,4
127424252,0,14884,4
127446100,1521,576,4
127468960,14884,23104,4
127494960,20164,0,4
127516800,5625,0,4
127537592,1089,17956,4
127562584,0,3364,4
127583376,0,20449,4
127605216,3600,1,4
127626000,2601,13225,4
127650980,2809,0,4
127671776,2116,9604,4
127695684,4356,0,4
127716500,0,0,4
127734156,25744,5625,4
127759120,11748,10404,4
127785140,12321,5476,4
127810084,8804,12769,4
127835056,0,841,4
127854836,0,324,4
127874584,14400,841,4
127898480,1681,23409,4
127923452,0,14884,4
127945284,0,1681,4
127966104,3844,0,4
127986908,27556,81,4
128009776,27556,21025,4
128035764,7396,27225,4
128060724,961,23409,4
128084652,576,20164,4
128108588,9,15876,4
128130428,3600,5625,4
128154340,2916,3600,4
128178240,17424,4761,4
128203212,31684,3481,4
128228176,0,0,4
128245848,0,0,4
128263544,3025,361,4
128286424,100,22201,4
128310328,0,1681,4
128331128,22801,22201,4
128357120,676,10404,4
128381056,0,5625,4
128401844,0,7744,4
128422668,3600,3481,4
128446604,1849,8464,4
128470504,0,1156,4
128491292,0,17161,4
128513124,100,81,4
128533924,144,625,4
128555776,7569,784,4
128578664,0,8100,4
128599460,1369,27556,4
128624428,144,14161,4
128648344,5625,0,4
128669140,9025,0,4
128689928,0,144,4
128709696,24964,6724,4
128734656,26569,10816,4
128760652,12996,784,4
128784592,6561,225,4
128807444,0,27556,4
128829288,19600,3844,4
128854252,7056,1,4
128875044,8649,6084,4
128898980,0,121,4
128918752,27556,10201,4
128944744,13225,1936,4
128969672,5625,1089,4
128993612,20449,0,4
129015452,0,21316,4
129037288,676,8100,4
129060172,0,289,4
129079932,32761,19600,4
129105908,0,1681,4
129126748,21809,3969,4
129151684,20249,7225,4
129176672,0,4689,4
129197448,28224,19600,4
129223452,5625,3600,4
129247376,0,0,4
129265040,11449,0,4
129286884,13689,0,4
129308744,9025,1089,4
129332636,576,1444,4
129355512,1296,5184,4
129379444,0,2209,4
129400256,0,21609,4
129422108,121,1296,4
129444972,17956,11025,4
129470980,16641,4761,4
129495924,6084,12769,4
129520908,11193,784,4
129544808,0,25600,4
129566640,7225,3844,4
129590564,2116,11236,4
129615528,13456,7225,4
129640504,400,529,4
129662348,3844,400,4
129685220,6084,12544,4
129710176,0,529,4
129729920,21904,16900,4
129755936,24964,12544,4
129781952,49,19600,4
129804816,17689,4624,4
129829776,2704,0,4
129850572,81,9409,4
129872408,3481,196,4
129895292,21316,25,4
129918192,361,196,4
129940024,1444,1764,4
129963932,7225,2601,4
129987856,26896,361,4
130011764,22500,8281,4
130036720,0,11449,4
130058584,4624,21316,7
130083532,21609,36,7
130106416,4356,10816,7
130131352,0,5776,7
130152152,24649,7396,7
130177140,32041,324,7
130201056,20449,7396,7
130226020,625,18769,7
130249936,16641,13689,7
130275908,18496,18496,7
130301920,0,4489,7
130322736,30276,2116,7
130347696,19600,10816,7
130373700,121,13225,7
130397616,0,7225,7
130418420,3364,9216,7
130442340,18225,400,7
130466240,5625,12544,7
130491196,10816,31684,7
130517212,24025,7569,7
130542180,961,14641,7
130566088,0,24025,7
130587936,8281,19881,7
130612888,144,1,7
130632632,1,2916,7
130653460,6084,5041,7
130677380,49,3844,7
130699208,10000,16,7
130722088,24964,1,7
130743952,49,8281,7
130765768,18225,81,7
130788652,21904,5776,7
130813616,36,324,7
130834408,5041,1296,7
130858352,10089,1849,7
130883280,0,5476,7
130904100,5041,1369,7
130928004,0,3136,7
130948804,28561,5776,7
130973772,1156,4356,7
130997692,25600,5776,7
131022652,0,0,7
131040340,11025,21316,7
131066332,24964,0,7
131088180,400,0,7
131107932,36,2116,7
131129772,2601,1,7
131150568,576,4,7
131170328,0,1681,7
131191152,144,1764,7
131214008,14884,0,7
131235848,0,0,7
131253536,484,22201,7
131277444,7056,8836,7
131301384,10201,2209,7
