Timestamp (micros),Sensor1 (mV),Sensor2 (mV),Label
53868,8649,3721,1
56096,441,225,1
58232,100,81,1
60676,441,441,1
78360,169,121,1
96028,25,81,1
111640,169,169,1
130356,225,0,1
146988,144,16,1
164676,16,36,1
181320,4,25,1
196916,144,49,1
214600,16,16,1
231236,0,49,1
246832,36,16,1
263484,1,1,1
278036,4,16,1
293636,16,4,1
309232,36,16,1
325884,256,1,1
342516,196,0,1
359152,9,16,1
374748,4,0,1
389324,4,0,1
403884,16,25,1
420516,0,4,1
435080,1,1,1
449632,4,16,1
465236,49,1,1
480832,16,16,1
497464,25,4,1
513072,64,25,1
529716,36,16,1
546352,81,1,1
561948,576,4,1
578592,169,9,1
595244,0,0,1
609796,0,0,1
624356,81,0,1
639960,169,0,1
656600,36,0,1
672192,144,16,1
689876,25,9,1
705464,81,1,1
721076,49,16,1
737720,100,4,1
754356,169,9,1
770976,64,25,1
787640,4,1,1
802204,36,25,1
818836,25,4,1
834436,9,0,1
849008,1,0,1
863576,676,1,1
880196,841,36,1
897876,9,4,1
912448,25,1,1
928036,9,9,1
942596,9,16,1
958200,25,1,1
973788,100,0,1
990440,144,1,1
1007080,121,49,1
1025788,81,25,1
1043488,9,0,1
1059076,576,1,1
1076760,361,9,1
1094436,400,16,1
1113152,2209,49,1
1132916,1225,81,1
1152676,0,0,1
1168272,361,81,1
1187004,16,64,1
1204664,324,16,1
1223384,36,0,1
1240024,289,4,1
1257720,289,0,1
1275400,16,1,1
1292040,100,9,1
1309720,400,1,1
1327400,9,0,1
1343000,1024,0,1
1361712,625,81,1
1380440,0,81,1
1397088,225,9,1
1414748,256,1,1
1432440,144,81,1
1451152,1936,81,1
1470904,3136,25,1
1490668,1764,81,1
1510432,1764,64,1
1530184,1369,81,1
1549956,1156,0,1
1568672,1296,100,1
1589472,900,81,1
1608188,196,64,1
1626920,36,121,1
1645648,361,4,1
1663324,36,16,1
1680996,121,25,1
1699716,169,100,1
1719484,36,169,1
1738196,529,9,1
1755868,196,16,1
1774576,625,324,1
1794352,121,1024,1
1815144,2704,441,1
1835940,3136,676,1
1856768,225,81,1
1875472,484,81,1
1894188,576,0,1
1911876,324,0,1
1929568,36,0,1
1946196,1156,1,1
1964916,2116,144,1
1985728,484,324,1
2005476,400,144,1
2025236,324,9,1
2042920,16,9,1
2059572,144,16,1
2078256,289,289,1
2098012,2025,400,1
2118832,841,100,1
2138584,144,4,1
2156260,1521,25,1
2176036,3249,256,1
2196848,121,25,1
2215560,256,9,1
2233232,4,64,1
2249876,1024,144,1
2270672,784,100,1
2290440,36,121,1
2309164,256,16,1
2327888,196,4,1
2345560,225,4,1
2363236,1369,49,1
2383004,729,36,1
2401712,9,1,1
2417316,289,1,1
2434992,729,4,1
2452672,121,49,1
2471396,64,121,1
2490108,121,25,1
2508848,9,9,1
2524436,324,1,1
2542116,1089,25,1
2561876,49,9,1
2578532,121,225,1
2598288,36,25,1
2615960,25,36,1
2633620,64,25,1
2651320,441,36,1
2670044,361,1,1
2687720,0,64,1
2704348,36,121,1
2723076,0,0,1
2738672,625,9,1
2756356,1024,16,1
2776132,196,0,1
2793796,121,36,1
2812512,16,9,1
2829148,484,121,1
2848932,1,64,1
2865568,484,100,1
2885312,441,144,1
2905064,169,25,1
2923804,25,100,1
2942516,9,144,1
2960196,0,0,1
2975800,169,9,1
2993480,81,1,1
3010108,121,25,1
3028840,1,1,1
3044448,25,0,1
3061080,100,49,1
3079776,729,225,1
3099548,144,64,1
3118284,9,0,1
3133884,9,49,1
3150500,16,121,1
3169228,4,9,1
3184844,49,169,1
3203552,4,144,1
3221232,36,81,1
3238908,324,0,1
3256600,100,100,1
3276352,36,49,1
3294032,36,4,1
3310684,1,16,1
3327320,81,576,1
3346032,16,961,1
3364752,1444,169,1
3385568,961,9,1
3403232,0,1,1
3418828,49,9,1
3435472,16,144,1
3454192,0,100,1
3471868,529,1,1
3489544,1369,0,1
3508268,1225,16,1
3528044,625,16,1
3546760,1,49,1
3563388,361,0,1
3581084,841,9,1
3598752,900,100,1
3618516,576,121,1
3638264,625,16,1
3657000,144,4,1
3674672,25,144,1
3693392,81,16,1
3711084,0,1,1
3726676,4,25,1
3743308,0,49,1
3759952,144,49,1
3778672,256,64,1
3797396,361,16,1
3816108,1156,9,1
3834836,100,100,1
3854592,225,1,1
3872272,64,25,1
3889964,49,4,1
3906592,576,49,1
3925312,361,81,1
3944024,16,49,1
3961708,25,9,1
3978368,100,1,1
3996044,4,0,1
4011640,289,9,1
4029316,196,49,1
4048056,1,1,1
4063636,324,16,1
4082360,441,1,1
4100028,25,0,1
4116680,9,9,1
4132268,100,1,1
4149948,4,0,1
4165540,64,16,1
4183236,169,25,1
4201956,16,9,1
4218596,121,0,1
4236268,196,49,1
4254996,100,49,1
4273712,0,4,1
4289320,9,16,1
4305960,144,9,1
4323644,64,4,1
4340280,289,9,1
4357952,16,1,1
4374596,49,16,1
4392284,9,4,1
4407876,4,0,1
4423468,1,64,1
4440112,36,9,1
4456752,144,0,1
4474432,16,16,1
4492128,4,1,1
4507728,9,4,1
4523320,16,16,1
4540988,0,0,1
4556596,1,16,1
4573244,1,1,1
4588836,0,0,1
4604440,16,4,1
4621076,36,0,1
4637720,36,1,1
4654364,36,1,1
4671004,0,0,1
4686596,81,0,1
4703220,49,49,1
4720916,64,36,1
4738608,25,25,1
4756272,225,25,1
4775000,289,4,1
4792684,484,81,1
4811392,1089,81,1
4831136,196,49,1
4849872,81,0,1
4866508,484,9,1
4884192,324,81,1
4902900,36,0,1
4919556,1,9,1
4935156,25,9,1
4951796,100,4,1
4969484,81,0,1
4986116,900,16,1
5004840,1936,169,1
5025632,784,100,1
5045404,169,25,1
5064124,25,36,1
5081796,0,0,1
5097388,49,25,1
5115084,196,25,1
5133796,256,36,1
5152516,100,25,1
5171240,0,0,1
5186844,196,25,1
5205552,225,16,1
5224272,16,4,1
5240920,169,0,1
5258596,121,0,1
5276268,441,1,1
5293952,676,64,1
5312680,9,36,1
5329316,1681,16,1
5349068,400,49,1
5367780,81,0,1
5384436,25,9,1
5401080,1,1,1
5416676,64,0,1
5433312,169,4,1
5451012,9,0,1
5466608,16,1,1
5483232,16,4,1
5499876,9,0,1
5515480,16,9,1
5532120,49,4,1
5548756,121,1,1
5566424,121,0,1
5584116,4,4,1
5599708,121,16,1
5618432,81,16,1
5636120,0,0,1
5651716,169,1,1
5669396,100,0,1
5687076,9,1,1
5702680,1,0,1
5718272,16,0,1
5734916,9,4,1
5750512,169,0,1
5768204,100,0,1
5785880,1,4,1
5801480,1,1,1
5817072,9,9,1
5832668,64,16,1
5850360,225,9,1
5868036,0,4,1
5883624,64,49,1
5901308,169,9,1
5919004,4,4,1
5934600,64,4,1
5951236,36,25,1
5968920,0,16,1
5985568,121,1,1
6003244,169,9,1
6020912,25,16,1
6038596,36,16,1
6056276,81,9,1
6072912,25,9,1
6089556,256,0,1
6107244,100,4,1
6124912,100,0,1
6142588,100,25,1
6161312,144,9,1
6179004,81,0,1
6195636,9,0,1
6211236,0,16,1
6227868,25,1,1
6244520,4,0,1
6260112,25,16,1
6277788,36,1,1
6294428,9,9,1
6310052,0,1,1
6325644,64,1,1
6342272,0,0,1
6357876,121,4,1
6375564,36,9,1
6392204,16,1,1
6408836,121,1,1
6426528,1,0,1
6442116,64,9,1
6458760,9,1,1
6474360,1,0,1
6489960,1,16,1
6506608,1,4,1
6522196,16,0,1
6538840,0,4,1
6554436,1,1,1
6570048,1,4,1
6585644,0,1,1
6601240,1,4,1
6616828,0,0,1
6632436,1,4,1
6648048,49,4,1
6664680,1,4,1
6680272,81,0,1
6696900,0,0,1
6712520,4,0,1
6728108,324,25,1
6746824,361,25,1
6765556,25,4,1
6782200,100,9,1
6799876,144,9,1
6817560,36,1,1
6834208,400,9,1
6851888,100,81,1
6870592,169,0,1
6888264,529,196,1
6908040,16,81,1
6925724,100,0,1
6943404,1,0,1
6958992,9,9,1
6974608,1,1,1
6990204,16,9,1
7006840,9,0,1
7022440,49,1,1
7039076,0,0,1
7054688,225,9,1
7072356,400,64,1
7091076,1,1,1
7106676,64,4,1
7123316,9,4,1
7138920,49,1,1
7155564,1,9,1
7171156,0,1,1
7186764,64,0,1
7203400,49,1,1
7220040,100,1,1
7237720,256,16,1
7256448,1,4,1
7272036,25,4,1
7288672,0,0,1
7304284,1,1,1
7319880,100,9,1
7337560,144,4,1
7355236,36,4,1
7371892,25,9,1
7388528,169,9,1
7406188,100,25,1
7424924,9,25,1
7441564,676,4,1
7459248,1369,64,1
7479000,361,36,1
7497716,4,9,1
7513316,36,9,1
7529952,144,25,1
7548672,400,16,1
7567404,529,36,1
7586116,196,36,1
7604828,16,0,1
7621468,16,0,1
7638124,121,1,1
7655800,121,25,1
7674516,0,9,1
7690116,361,1,1
7707808,841,36,1
7726524,529,36,1
7745236,100,49,1
7763944,25,9,1
7780608,9,16,1
7797228,100,0,1
7814912,529,49,1
7833636,361,36,1
7852372,49,9,1
7868996,144,4,1
7886676,36,36,1
7904352,0,9,1
7919956,0,1,1
7935548,121,4,1
7953240,144,4,1
7970920,0,1,1
7986524,100,16,1
8005236,36,1,1
8021880,49,0,1
8038524,324,25,1
8057244,361,36,1
8075952,16,4,1
8092588,9,1,1
8108204,9,4,1
8123804,9,4,1
8139396,25,1,1
8156032,9,4,1
8171632,9,0,1
8187236,64,0,1
8203880,225,9,1
8221556,64,4,1
8238196,121,1,1
8255884,1,4,1
8271488,121,1,1
8289156,1,1,1
8304756,16,4,1
8321408,16,9,1
8338032,1,4,1
8353632,81,9,1
8370284,9,0,1
8385872,4,9,1
8401488,4,1,1
8417068,36,25,1
8434756,16,4,1
8451392,9,0,1
8466992,36,0,1
8483636,36,0,1
8500276,0,1,1
8515876,4,0,1
8531476,0,0,1
8547080,1,1,1
8562660,0,0,1
8578276,9,0,1
8593876,49,0,1
8610504,16,1,1
8627148,1,0,1
8642760,4,0,1
8658364,64,1,1
8674988,0,4,1
8690584,25,9,1
8707236,16,1,1
8723884,36,9,1
8740512,0,16,1
8757148,36,1,1
8773796,81,9,1
8790444,4,1,1
8806032,196,0,1
8823712,1,1,1
8839320,64,1,1
8855956,100,9,1
8873628,64,1,1
8890268,0,1,1
8905892,49,0,1
8922528,121,25,1
8941236,49,4,1
8957868,9,0,1
8973472,4,49,1
8990116,25,25,1
9007796,81,0,1
9024432,4,4,1
9040040,49,1,1
9056688,576,1,1
9074356,196,36,1
9093072,36,1,1
9109724,225,16,1
9128440,324,9,1
9146108,49,81,1
9163792,0,81,1
9180448,196,9,1
9198116,81,25,1
9215800,121,1,1
9233480,49,9,1
9250124,49,0,1
9266756,144,9,1
9284440,36,9,1
9301076,25,4,1
9317724,16,1,1
9334356,100,9,1
9352036,100,9,1
9369720,144,4,1
9387392,361,25,1
9406116,256,64,1
9424824,25,0,1
9441476,0,1,1
9457076,225,25,1
9475792,324,36,1
9494504,169,1,1
9512200,625,16,1
9530916,225,9,1
9548588,100,9,1
9566276,0,36,1
9582928,81,1,1
9599564,49,9,1
9616204,4,9,1
9631796,16,0,1
9648436,9,4,1
9664044,4,16,1
9680676,0,4,1
9696284,16,0,1
9712912,4,36,1
9729564,25,1,1
9746196,100,49,1
9764916,36,1,1
9781560,0,36,1
9798200,0,1,1
9813796,100,0,1
9831484,324,1,1
9849160,324,25,1
9867888,529,9,1
9885568,169,36,1
9904284,0,9,1
9919876,64,4,1
9936524,4,36,1
9953160,49,1,1
9969804,16,4,1
9986448,1,4,1
10002032,169,0,1
10020756,121,1,1
10039488,49,4,1
10057160,169,1,3
10075868,25,1,3
10093560,9,1,3
10110204,16,1,3
10127880,9,9,3
10144524,121,16,3
10164276,289,0,3
10183008,100,4,3
10201708,9,1,3
10218352,9,0,3
10235000,361,9,3
10253716,484,0,3
10272428,25,4,3
10290112,4,1,3
10306756,256,0,3
10325472,121,4,3
10344188,144,4,3
10362920,324,49,3
10382676,361,16,3
10402432,100,9,3
10421148,64,16,3
10439880,49,0,3
10457552,9,0,3
10474196,4,9,3
10490832,1,1,3
10507480,9,0,3
10524116,0,0,3
10540752,1,4,3
10557392,0,4,3
10574040,36,0,3
10591716,121,16,3
10611480,64,9,3
10629160,49,1,3
10646840,49,4,3
10664524,25,4,3
10682196,25,1,3
10699872,169,0,3
10718596,144,9,3
10737316,0,1,3
10753948,169,1,3
10772684,1,4,3
10789312,16,0,3
10807004,81,0,3
10824668,121,4,3
10843400,0,1,3
10860036,4,0,3
10876664,64,0,3
10894360,0,4,3
10910996,81,16,3
10929716,9,9,3
10946348,49,0,3
10964040,36,1,3
10981720,16,9,3
10999384,0,0,3
11016036,49,1,3
11033724,64,0,3
11051404,81,9,3
11069080,16,0,3
11086756,100,4,3
11105476,36,16,3
11124196,361,0,3
11142912,169,16,3
11162680,100,9,3
11181408,121,0,3
11200104,81,49,3
11218832,225,64,3
11238604,36,9,3
11256272,36,0,3
11273952,0,1,3
11290588,144,0,3
11309320,256,16,3
11329072,169,4,3
11347796,9,16,3
11365480,289,4,3
11384200,729,4,3
11402904,484,4,3
11421632,64,0,3
11439320,0,9,3
11455948,0,49,3
11473640,841,49,3
11493396,361,144,3
11514196,225,4,3
11532916,576,0,3
11551632,784,0,3
11570356,9,36,3
11588024,1225,100,3
11609880,9,1,3
11626528,196,81,3
11646276,16,4,3
11663952,576,0,3
11682660,1764,196,3
11704516,2916,144,3
11726356,841,25,3
11746108,529,25,3
11765880,1369,196,3
11787720,81,49,3
11806428,1296,121,3
11828268,7396,196,3
11850100,1681,64,3
11870908,3721,9,3
11890664,11664,0,3
11911468,6561,4,3
11931224,784,9,3
11949952,1849,25,3
11970756,2704,196,3
11992600,625,121,3
12013392,0,81,3
12031072,196,81,3
12050836,49,1,3
12068508,2704,0,3
12088272,1600,25,3
12109088,64,1,3
12126760,0,4,3
12143384,169,361,3
12164196,64,16,3
12182920,361,361,3
12203716,441,64,3
12223460,256,196,3
12244272,49,144,3
12264012,324,4356,3
12285852,256,4900,3
12307716,1089,3364,3
12330564,1849,9025,3
12353448,1600,27225,3
12377384,625,18225,3
12400264,0,324,3
12418984,324,625,3
12439784,900,9801,3
12461616,576,20164,3
12484496,3025,9604,3
12507392,2304,6241,3
12530264,4,49,3
12547932,1849,3364,3
12570836,3136,1600,3
12593712,1024,81,3
12614492,2304,1024,3
12637384,1521,3969,3
12660264,196,14884,3
12683128,400,5041,3
12704980,784,16,3
12724752,0,3600,3
12744512,16,0,3
12762188,2025,18225,3
12786100,2116,3481,3
12808976,225,225,3
12829792,484,729,3
12850596,1600,144,3
12872420,961,0,3
12891148,14400,1,3
12911940,196,1296,3
12933788,1,0,3
12950428,1521,361,3
12972252,11193,676,3
12995116,27556,961,3
13017992,0,27225,3
13038808,21609,32761,3
13063788,1369,0,3
13083532,81,0,3
13101208,144,15129,3
13124120,196,0,3
13142824,11449,30976,3
13167776,7921,324,3
13189608,1764,256,3
13211464,0,169,3
13230180,21028,4761,3
13254088,2153,32433,3
13278004,21904,0,3
13298820,6084,1,3
13318580,400,16,3
13338340,64,121,3
13358096,49,16,3
13376828,1,4,3
13393460,1521,0,3
13413184,21025,36,3
13435060,0,3969,3
13454804,25600,5476,3
13478732,16,0,3
13496420,100,0,3
13515144,144,289,3
13535948,361,225,3
13556748,49,9,3
13574428,16,169,3
13594172,400,4,3
13612888,8464,4,3
13632644,22201,1521,3
13656576,4624,1024,3
13679456,9,64,3
13697140,121,9,3
13715864,16,100,3
13735620,196,121,3
13756428,25,1,3
13774108,49,81,3
13792820,49,16,3
13811560,1,0,3
13828168,0,15129,3
13848992,12305,8281,3
13872876,13689,0,3
13893680,13225,0,3
13914504,4489,1,3
13934260,36,49,3
13952972,64,81,3
13971696,729,81,3
13991468,4,4356,3
14011212,36,12321,3
14033064,169,1369,3
14054904,576,4,3
14073616,4489,49,3
14094408,17424,441,3
14117288,2500,676,3
14139136,1,0,3
14155788,4,0,3
14172428,16,16,3
14191140,16,16,3
14209876,1,0,3
14226488,0,23409,3
14247288,0,4900,3
14267060,9,25,3
14284732,169,64,3
14304508,1,25,3
14322180,100,144,3
14342980,81,9,3
14360664,4,225,3
14379372,0,0,3
14396012,25921,0,3
14416816,3721,9,3
14436584,144,49,3
14456348,64,4,3
14474020,1,25,3
14491704,49,64,3
14510428,49,1,3
14528116,4,0,3
14544716,0,25281,3
14565556,2308,8281,3
14588424,30625,5041,3
14612324,361,0,3
14631056,225,26569,3
14653932,5625,1,3
14673704,16,16,3
14692416,400,900,3
14713212,841,529,3
14734012,81,25,3
14752724,196,324,3
14773544,196,25,3
14793300,9,121,3
14812008,144,81,3
14831788,4,25,3
14849460,100,121,3
14870256,4489,4,3
14890016,2401,81,3
14910808,5776,9,3
14930576,2209,361,3
14952420,121,16,3
14972188,144,49,3
14991944,121,1,3
15010664,9,1,3
15027288,0,0,3
15043936,24336,0,3
15064732,5041,1,3
15084488,100,64,3
15104264,25,1,3
15121952,16,49,3
15140660,64,36,3
15159392,4,1,3
15176012,0,0,3
15192632,22201,0,3
15213456,5041,25,3
15234272,16,196,3
15254028,49,4,3
15271696,64,144,3
15291456,144,64,3
15311228,1,9,3
15327860,64,64,3
15346580,25,6724,3
15367400,25,20164,3
15389204,1369,4225,3
15412100,729,0,3
15430824,36,121,3
15450580,25,4,3
15468260,49,144,3
15488028,121,36,3
15507780,0,16,3
15525452,0,22500,3
15546256,5089,0,3
15566012,0,13425,3
15586820,0,0,3
15603448,31185,0,3
15624244,7056,0,3
15644032,1028,961,3
15665860,0,5184,3
15685592,0,22801,3
15706436,0,32400,3
15727196,0,0,3
15743872,900,0,3
15762568,0,11664,3
15783364,6825,3721,3
15806256,0,0,3
15822888,23377,4993,3
15846800,20313,13156,3
15871764,2601,0,3
15891540,4624,196,3
15913372,144,361,3
15934180,441,196,3
15954996,64,4761,3
15975788,49,9801,3
15996568,7569,9025,3
16019436,81,15625,3
16041288,2809,0,3
16061052,2601,49,3
16081856,256,676,3
16102656,81,4,3
16120340,196,729,3
16141148,676,400,3
16161928,9216,784,3
16183776,3249,1,3
16203540,169,0,3
16222260,144,225,3
16243080,144,16,3
16262820,0,100,3
16281524,8057,8100,3
16304440,0,8649,3
16324188,5776,1,3
16343936,0,2304,3
16363716,4489,484,3
16385532,4761,0,3
16405284,15876,18769,3
16430260,15625,169,3
16453140,0,16,3
16470812,784,1444,3
16492652,1024,441,3
16514476,0,29929,3
16535296,513,2064,3
16557148,3025,18225,3
16581048,19321,841,3
16603952,0,22801,3
16624736,30625,16,3
16646572,3481,3969,3
16669464,1296,9,3
16689228,1,361,3
16707936,2025,225,3
16729772,1,36,3
16747452,36,100,3
16767220,81,25,3
16785952,0,36,3
16803624,64,23409,3
16825456,144,6288,3
16847276,2401,11025,3
16871220,3025,0,3
16890980,0,49,3
16908664,1,100,3
16927380,144,169,3
16948168,64,4,3
16965868,9,49,3
16983540,2809,19044,3
17007452,4624,6288,3
17030336,484,16641,3
17053236,5776,484,3
17075036,24025,28224,3
17100012,16129,0,3
17120828,11193,289,3
17143680,26896,18225,3
17168648,289,24336,3
17191528,6084,529,3
17213344,0,26569,3
17234156,25281,0,3
17254948,9801,14400,3
17278884,100,961,3
17299692,225,625,3
17320492,961,625,3
17341292,10816,3364,3
17365208,16,8836,3
17386008,3721,28561,3
17409932,2916,196,3
17431772,196,484,3
17452572,24649,13456,3
17477516,5625,1225,3
17500408,9025,9801,3
17523292,0,0,3
17539928,14089,14073,3
17564892,15689,31876,3
17589844,5776,0,3
17609616,9025,144,3
17631472,900,49,3
17651228,1444,0,3
17670968,5184,196,3
17692808,18496,1024,3
17716724,324,0,3
17735456,6400,0,3
17755212,3600,36,3
17776020,81,49,3
17794732,4,25,3
17812432,64,169,3
17832184,1849,144,3
17854012,196,289,3
17874828,9,1,3
17891440,8464,0,3
17911180,18496,13425,3
17936168,16,3025,3
17956964,625,12100,3
17979828,1936,28900,3
18003752,0,12100,3
18024572,0,5476,3
18044332,1089,961,3
18066180,25,4,3
18083864,49,121,3
18103620,64,9,3
18121300,9,64,3
18138960,0,0,3
18155604,22801,0,3
18176412,6084,100,3
18198260,1,144,3
18216980,9,49,3
18234672,121,144,3
18255464,144,25,3
18275220,1,49,3
18292900,100,49,3
18312656,16,196,3
18332412,25,225,3
18352196,256,361,3
18372988,1849,529,3
18394816,625,36,3
18414568,16,4,3
18432268,36,36,3
18450984,9,0,3
18467604,0,0,3
18484248,25281,0,3
18505056,2500,64,3
18525860,9,100,3
18544572,81,0,3
18562268,49,144,3
18582024,169,64,3
18601780,4,16,3
18619444,30976,64,3
18641308,24464,3969,3
18665216,15625,6241,3
18689144,0,2704,3
18708900,121,3364,3
18730708,0,23104,3
18751520,17956,0,3
18772340,1681,4,3
18792116,676,25,3
18811856,5041,1369,3
18834732,24025,36,3
18856572,3969,2209,3
18879416,81,0,3
18897140,484,29729,3
18920008,21904,14852,3
18944952,5041,0,3
18964740,5476,9,3
18984500,4,576,3
19003212,484,144,3
19024032,9,49,3
19041700,196,225,3
19062500,100,9,3
19081228,25,121,3
19100988,144,64,3
19120740,1,16,3
19138412,18496,1849,3
19162344,7905,7744,3
19185204,11449,3364,3
19209124,0,0,3
19225772,9553,18688,3
19249680,20900,0,3
19270476,4900,26896,3
19294412,4096,1849,3
19317292,25,20449,3
19339128,0,2304,3
19358888,0,13456,3
19379700,2209,196,3
19401544,81,81,3
19420264,841,1,3
19438988,324,144,3
19459780,9,1,3
19476424,0,0,3
19493052,17689,0,3
19513860,5476,1,3
19533624,4225,36,3
19554408,14641,676,3
19577288,29584,1545,3
19601220,36,0,3
19618892,0,1225,3
19638644,0,961,3
19657364,5625,2304,3
19680244,729,36,3
19700020,121,4,3
19718740,121,100,3
19739540,36,1,3
19757216,6724,169,3
19779044,26569,841,3
19801928,4489,676,3
19823784,49,9,3
19841460,16,1,3
19859140,0,1,3
19875760,30276,6084,3
19899696,26273,0,3
19920480,11449,12100,3
19945436,0,1444,3
19965240,5089,5184,3
19988084,27556,30625,3
20013036,28224,3136,3
20036968,0,25668,3
20057752,19600,31684,5
20082740,0,1225,5
20102504,1156,529,5
20124336,100,484,5
20145144,484,361,5
20165948,484,0,5
20184664,3136,0,5
20204400,324,29241,5
20227288,0,0,5
20243928,0,12569,5
20264744,11236,0,5
20285552,10201,32041,5
20310492,15129,21609,5
20335460,0,5753,5
20355220,2601,20736,5
20379128,2601,625,5
20400956,21316,3481,5
20424908,1225,14400,5
20448816,24649,36,5
20470664,0,24649,5
20491456,8649,169,5
20513304,1225,81,5
20534100,225,11449,5
20556964,0,400,5
20575684,0,17956,5
20596504,1369,16,5
20617304,196,36,5
20637068,9,9,5
20653716,144,0,5
20672408,961,25281,5
20695280,2809,0,5
20715048,400,31684,5
20737932,36,484,5
20757696,1156,1,5
20777456,9,529,5
20796164,1024,900,5
20818016,361,4,5
20836744,144,441,5
20857544,441,169,5
20878348,1,81,5
20896016,225,256,5
20916820,81,0,5
20934496,17161,0,5
20955296,30276,2500,5
20979208,729,1089,5
21001052,529,529,5
21021856,1369,64,5
21042648,2209,961,5
21064476,0,0,5
21081124,0,7696,5
21100896,4900,0,5
21120652,4225,121,5
21142492,144,576,5
21163296,14161,196,5
21186152,9,0,5
21202792,19321,18697,5
21227760,121,0,5
21246488,1024,0,5
21266248,17689,1600,5
21290172,27225,676,5
21313060,8993,1764,5
21335920,28224,23716,5
21360904,1,23104,5
21381692,4900,25,5
21402500,9,36,5
21420184,100,529,5
21440964,729,576,5
21461780,196,4,5
21480504,100,256,5
21501308,225,81,5
21521060,0,64,5
21538728,144,144,5
21559536,36,1,5
21577228,49,121,5
21596980,81,36,5
21615704,0,25,5
21633384,625,100,5
21654168,4356,169,5
21676012,900,25,5
21695792,49,4,5
21713460,1,16,5
21731128,0,0,5
21747772,23716,0,5
21768580,3721,196,5
21790412,36,64,5
21809136,64,9,5
21826828,4,64,5
21844516,100,81,5
21864272,9216,121,5
21886084,32761,2025,5
21910024,7396,900,5
21931872,3721,100,5
21953684,8281,0,5
21973448,11664,0,5
21994252,3136,100,5
22016104,144,64,5
22035872,64,4,5
22053536,1,49,5
22071184,0,1024,5
22090992,24164,18225,5
22115920,0,0,5
22132572,4225,25281,5
22156496,3481,169,5
22178340,9,676,5
22197060,441,64,5
22216828,4,196,5
22235536,441,361,5
22256332,144,0,5
22275056,81,196,5
22294828,169,64,5
22314580,1,49,5
22332260,121,100,5
22353068,36,0,5
22370716,0,100,5
22389444,30625,22801,5
22414404,16900,12569,5
22439360,1936,0,5
22459136,3481,144,5
22480996,0,1225,5
22500752,1521,3844,5
22523596,0,20449,5
22544400,0,21025,5
22565220,3844,49,5
22586012,256,100,5
22606816,64,49,5
22625544,0,25,5
22643228,100,64,5
22662972,25,0,5
22680668,0,784,5
22699376,0,25281,5
22720184,100,31329,5
22743064,0,0,5
22759692,0,20548,5
22780500,5476,23865,5
22804396,10640,25281,5
22829368,0,0,5
22846012,1444,196,5
22867860,0,576,5
22886568,14089,7921,5
22910488,8993,0,5
22930256,3600,10640,5
22954172,1225,24464,5
22978092,1764,31684,5
23002016,29929,1028,5
23025936,1764,0,5
23045680,14161,1521,5
23069612,0,16641,5
23090400,8057,0,5
23110164,0,0,5
23126808,0,0,5
23143444,6889,0,5
23163212,6561,9,5
23182968,0,484,5
23201684,225,7396,5
23223532,4,22201,5
23244336,2601,6561,5
23267216,625,0,5
23285936,100,361,5
23306732,121,0,5
23325464,64,225,5
23345224,289,144,5
23366020,9,49,5
23383692,144,121,5
23404488,81,1,5
23422188,16,64,5
23440908,81,36,5
23459604,22500,0,5
23480404,0,25744,5
23501208,2809,4160,5
23524084,5041,15625,5
23548008,1936,0,5
23567788,2064,0,5
23587524,0,625,5
23606244,0,7569,5
23626024,25,4,5
23643704,441,121,5
23664500,4,100,5
23683216,256,225,5
23704024,81,1,5
23721700,25,121,5
23741460,121,36,5
23761220,0,25,5
23778900,3136,14161,5
23802804,4489,0,5
23822568,225,14161,5
23845452,1296,64,5
23866276,529,64,5
23886024,1521,196,5
23907864,4761,0,5
23927608,900,0,5
23946340,14884,6889,5
23970256,11193,0,5
23991044,10201,0,5
24011864,4356,0,5
24031624,9,1024,5
24051364,841,225,5
24072172,1,169,5
24090904,441,484,5
24111708,196,4,5
24130420,81,256,5
24150188,256,100,5
24170976,0,49,5
24188648,8649,576,5
24210496,0,1521,5
24230256,7569,676,5
24252092,169,25,5
24271856,49,49,5
24290580,16,0,5
24308256,16,64,5
24326996,81,0,5
24344660,1764,29584,5
24368560,9604,0,5
24388328,4,31684,5
24409136,5929,196,5
24430988,81,121,5
24450736,49,676,5
24470480,1089,961,5
24492336,361,4,5
24511056,144,400,5
24531856,400,169,5
24552668,1,100,5
24571376,225,225,5
24592168,81,0,5
24609860,81,169,5
24629628,144,49,5
24649376,1,36,5
24667052,100,100,5
24687864,25,0,5
24705548,11025,0,5
24726320,20164,0,5
24747120,14161,0,5
24767932,0,1369,5
24787688,10201,1225,5
24811620,196,9,5
24830348,121,100,5
24851136,36,0,5
24868816,25,100,5
24888588,121,49,5
24908344,4,9,5
24924964,0,32400,5
24945772,0,0,5
24962404,2916,697,5
24984244,484,25744,5
25007132,32433,23104,5
25032080,0,6084,5
25051848,4,529,5
25070572,49,121,5
25090336,196,81,5
25110104,16,1,5
25127780,16,36,5
25146500,16,4,5
25164180,0,3600,5
25183920,27889,4225,5
25207852,0,0,5
25224508,21489,22416,5
25249440,7905,6793,5
25272332,3600,0,5
25292104,11881,225,5
25315000,1,0,5
25331612,9,0,5
25348260,400,400,5
25369056,4,4,5
25385700,64,121,5
25405456,12100,64,5
25427284,0,900,5
25445988,12864,3969,5
25469932,17924,6400,5
25493856,25921,4356,5
25517764,0,0,5
25534420,9553,0,5
25554188,10609,49,5
25575996,0,4160,5
25595764,16129,0,5
25616572,2401,49,5
25637380,64,361,5
25657128,576,361,5
25677940,121,0,5
25696660,100,256,5
25717460,196,64,5
25737216,1,81,5
25754908,144,121,5
25775700,36,0,5
25793368,0,0,5
25810012,26569,0,5
25830820,5041,4,5
25850580,256,9,5
25869292,9,0,5
25885952,1,9,5
25902572,30625,0,5
25923380,0,0,5
25940008,14884,961,5
25962916,0,2401,5
25982632,0,6561,5
26002400,0,0,5
26019056,23409,7569,5
26042984,4689,1156,5
26065840,9025,19600,5
26089780,16,30976,5
26111604,5184,324,5
26133452,9801,0,5
26153216,8281,0,5
26172968,6889,576,5
26194796,0,25921,5
26215604,19044,28900,5
26240584,289,625,5
26261368,2500,900,5
26283196,8649,32400,5
26307120,0,32400,5
26327932,0,841,5
26346668,841,961,5
26367452,0,256,5
26386168,400,441,5
26406980,144,4,5
26425712,225,400,5
26446504,361,100,5
26467292,0,121,5
26486028,225,196,5
26506816,64,0,5
26524500,64,144,5
26544268,100,25,5
26564024,0,36,5
26581712,529,0,5
26600404,26896,28224,5
26625384,0,24464,5
26646152,26569,0,5
26666964,6084,16,5
26687780,196,1,5
26706496,1,64,5
26724180,49,49,5
26742928,25,25,5
26761596,0,144,5
26780340,0,19044,5
26801120,15120,10404,5
26826096,23377,12305,5
26851048,19321,0,5
26871864,7225,1089,5
26894720,0,9409,5
26914472,26569,32761,5
26939448,4761,841,5
26961296,196,324,5
26982104,0,13924,5
27002904,0,1764,5
27022660,1764,400,5
27044496,16,3136,5
27065296,196,9,5
27084020,9,4,5
27100672,5929,0,5
27120400,4624,0,5
27140192,4352,3600,5
27163044,26896,0,5
27183856,16,25600,5
27205700,4356,9,5
27225460,0,100,5
27244176,0,121,5
27262884,256,289,5
27283696,169,25,5
27303460,9,81,5
27321156,100,0,5
27339860,961,29929,5
27362724,5625,0,5
27382488,64,30276,5
27404336,5929,225,5
27426176,169,196,5
27446972,49,676,5
27466716,1156,1156,5
27489620,400,9,5
27508344,169,484,5
27529136,529,196,5
27549948,4,121,5
27568660,324,256,5
27589452,100,0,5
27608180,81,196,5
27627940,196,81,5
27647700,1,36,5
27665368,100,100,5
27686180,49,0,5
27703860,25,64,5
27722580,81,25,5
27741308,0,25,5
27759004,36,0,5
27776644,0,23716,5
27797436,0,5625,5
27817228,49,16,5
27835936,100,9,5
27854664,25,64,5
27873380,121,100,5
27894184,25,0,5
27911844,25,20449,5
27933688,49,0,5
27951372,2500,9604,5
27974260,2601,0,5
27994012,9,100,5
28012740,0,100,5
28031444,169,5041,5
28053292,25,10609,5
28075144,324,1296,5
28096984,10404,4,5
28117784,6241,576,5
28139612,15876,0,5
28160424,2116,12544,5
28184336,8649,441,5
28206180,0,256,5
28224904,9,100,5
28243620,64,36,5
28262336,4,1,5
28279004,0,0,5
28295596,0,24336,5
28316404,0,4761,5
28336188,1,64,5
28353860,81,49,5
28372584,0,9,5
28389228,784,11025,5
28412092,289,0,5
28430804,784,9409,5
28452648,1024,81,5
28473468,4,49,5
28491140,36,9,5
28508832,0,729,5
28527520,0,26569,5
28548344,4,26244,5
28569120,0,29584,5
28589924,6889,8993,5
28612804,9216,0,5
28632564,529,7396,5
28654408,5329,16,5
28675216,16,49,5
28693936,441,676,5
28714744,400,121,5
28735552,0,100,5
28754260,196,121,5
28775052,36,1,5
28792740,64,121,5
28812512,81,25,5
28831220,1,49,5
28848900,81,64,5
28867616,0,0,5
28884244,25281,0,5
28905052,5776,25,5
28925852,64,36,5
28944588,0,36,5
28962260,49,81,5
28980980,36,9,5
28998676,0,400,5
29017384,9025,29584,5
29041288,21904,29729,5
29066256,49,0,5
29083944,5476,25,5
29104736,4,289,5
29123464,81,0,5
29141144,64,169,5
29160888,225,144,5
29181692,16,9,5
29199388,81,121,5
29219140,64,4,5
29236808,0,0,5
29253444,26244,0,5
29274248,5184,0,5
29294024,225,4,5
29312740,1,16,5
29330420,9,16,5
29348104,16,441,5
29367860,1,1089,5
29387628,5041,324,5
29409456,16129,196,5
29432336,3600,2601,5
29455228,0,3249,5
29474984,12569,5625,5
29498896,11812,22080,5
29523840,19044,0,5
29544660,7225,121,5
29566472,0,324,5
29585212,24953,3721,5
29609132,0,0,5
29625776,10304,15689,5
29650728,0,17924,5
29671524,8464,0,5
29691292,4624,169,5
29713136,400,25,5
29732912,25,1,5
29750580,0,16,5
29768256,49,64,5
29786968,25,2500,5
29807776,49,7396,5
29828572,100,225,5
29849376,225,100,5
29870184,0,0,5
29886832,5776,784,5
29908640,19600,3969,5
29932584,2601,1849,5
29955476,9604,81,5
29976248,3025,0,5
29996024,9216,0,5
30015792,20164,28224,5
30040724,16,4352,5
30061516,4356,29584,2
30085464,4225,121,2
30107288,0,0,2
30123924,0,16836,2
30144732,4900,0,2
30164496,3969,324,2
30186316,0,0,2
30202972,0,0,2
30219608,9025,0,2
30239372,4356,576,2
30261204,900,4,2
30279948,144,256,2
30300740,324,121,2
30321536,0,81,2
30339228,225,225,2
30360020,81,1,2
30377700,49,121,2
30397472,121,36,2
30417220,0,25,2
30434912,81,0,2
30452564,0,24336,2
30473372,0,5476,2
30493140,81,4,2
30510820,100,4,2
30529528,49,100,2
30549300,144,81,2
30569060,16,0,2
30586740,36,64,2
30605476,0,32761,2
30626252,64,0,2
30643924,24336,2884,2
30667856,26273,15913,2
30692804,6241,0,2
30712584,19728,1444,2
30736496,0,23409,2
30757288,100,26569,2
30780172,3364,1,2
30799940,64,324,2
30819704,9,121,2
30838408,441,676,2
30859208,441,121,2
30880016,1,121,2
30898744,289,196,2
30919544,49,1,2
30937224,81,144,2
30956980,100,25,2
30976740,4,64,2
30994424,400,22201,2
31017292,9,17985,2
31038088,3249,17424,2
31062012,2209,49,2
31082832,4,256,2
31101548,100,361,2
31122328,25,484,2
31142096,576,729,2
31162916,9,841,2
31181632,144,81,2
31201368,21316,5329,2
31225272,4489,0,2
31245040,1600,21904,2
31268976,16900,2209,2
31292908,1369,100,2
31314732,676,1156,2
31336600,441,729,2
31357392,121,0,2
31376112,49,81,2
31394840,13689,4,2
31415632,5929,1156,2
31438508,49,144,2
31458240,27556,1,2
31479060,0,3721,2
31498828,289,4225,2
31520660,1024,16129,2
31544596,196,2916,2
31566404,0,144,2
31585112,29241,13225,2
31610088,324,4,2
31628816,30976,7396,2
31652728,30976,8836,2
31676664,5041,2209,2
31699544,1225,441,2
31721372,11664,0,2
31742152,0,3136,2
31761940,0,2809,2
31781700,4096,0,2
31801468,16641,2209,2
31825372,1521,1369,2
31848260,1444,2025,2
31871120,900,3136,2
31892972,28224,576,2
31915852,21316,1296,2
31939792,81,36,2
31958504,1849,1,2
31978256,7744,1681,2
32001156,4900,25,2
32021944,1936,256,2
32043768,5776,121,2
32065624,361,676,2
32086424,3481,169,2
32108264,256,16,2
32128028,4225,4,2
32147784,4900,529,2
32169608,49,49,2
32188332,6400,81,2
32209136,1156,784,2
32230992,25281,729,2
32253848,0,1369,2
32273624,9604,2601,2
32296508,576,25,2
32316272,1444,4,2
32336040,900,49,2
32355776,2304,121,2
32377620,4761,2116,2
32400516,2116,5476,2
32423392,9604,25,2
32444176,14161,1156,2
32468116,400,64,2
32487872,169,25,2
32507624,784,225,2
32528420,784,121,2
32549224,9604,529,2
32571052,14400,9216,2
32594972,625,2809,2
32616836,196,400,2
32637620,900,4356,2
32659480,9,441,2
32678192,25,441,2
32697936,7225,576,2
32719772,22500,100,2
32742648,26569,5329,2
32766572,5041,4624,2
32789444,225,400,2
32810280,144,289,2
32831052,0,100,2
32849772,0,2116,2
32869544,900,1,2
32888256,11236,4,2
32909040,5476,3481,2
32931948,15376,784,2
32954808,2601,1764,2
32977696,324,2401,2
32999552,15876,1296,2
33023460,3136,2601,2
33046340,36,1024,2
33067144,4761,36,2
33087932,31329,144,2
33110832,6561,196,2
33132676,1600,100,2
33154496,4356,144,2
33176344,16,625,2
33196108,784,729,2
33216908,2209,121,2
33238744,576,169,2
33259556,1,49,2
33277228,324,2209,2
33299064,1600,3969,2
33321928,25,49,2
33340664,961,2209,2
33362504,576,169,2
33383308,49,25,2
33402032,4096,256,2
33423864,3364,484,2
33445720,9,529,2
33464424,144,144,2
33485220,1600,529,2
33507056,676,625,2
33527864,6400,289,2
33549708,16384,36,2
33571532,7744,529,2
33593392,4225,784,2
33615236,5476,1764,2
33638100,15129,7396,2
33662032,81,25,2
33680740,2704,1849,2
33703632,196,25,2
33723376,1024,4,2
33743140,36,144,2
33762904,16,169,2
33782656,225,9,2
33801388,25,25,2
33820112,144,9,2
33838828,0,49,2
33856488,6241,1764,2
33879372,20449,9216,2
33903296,2916,2500,2
33926192,49,1,2
33943864,49,81,2
33962576,1521,16,2
33983384,3481,225,2
34005228,169,529,2
34026020,64,36,2
34044740,81,64,2
34063476,256,324,2
34084256,841,289,2
34105052,1369,36,2
34125872,121,9,2
34144588,8649,256,2
34166424,22500,2916,2
34190348,6561,441,2
34212196,81,196,2
34231948,1024,4,2
34251696,1681,121,2
34273548,36,36,2
34292264,16,1089,2
34313060,676,324,2
34333868,2601,169,2
34355688,625,441,2
34376508,441,25,2
34396268,3136,169,2
34418092,784,1521,2
34439940,361,441,2
34460740,900,441,2
34481544,1,144,2
34500264,1,49,2
34517936,196,121,2
34538744,100,729,2
34559552,441,324,2
34580336,361,4,2
34599064,324,0,2
34617784,25,0,2
34635460,3364,1600,2
34658340,22500,12544,2
34683292,1764,4356,2
34706180,576,1156,2
34728032,2209,144,2
34749872,121,324,2
34770664,961,361,2
34791476,1,225,2
34810196,625,4,2
34828900,64,49,2
34847624,36,49,2
34866352,2916,289,2
34888192,3969,289,2
34910024,1600,1,2
34929796,441,1,2
34948516,81,0,2
34966180,2704,361,2
34988020,16641,144,2
35010904,11664,121,2
35033784,961,144,2
35054576,484,361,2
35075388,4624,81,2
35096172,18769,841,2
35119036,10609,784,2
35141960,625,64,2
35161692,400,4,2
35180424,9,81,2
35198100,0,729,2
35216828,5476,784,2
35238656,24964,1521,2
35262584,4489,2704,2
35285472,1369,16,2
35306260,30625,9,2
35327056,10816,1521,2
35350992,784,25,2
35370736,25,4,2
35388440,289,144,2
35409228,1296,64,2
35430012,729,225,2
35450816,169,0,2
35469552,441,289,2
35490344,1225,400,2
35512180,4,529,2
35530904,81,676,2
35550656,49,0,2
35568352,289,64,2
35588120,49,49,2
35606832,81,4,2
35624504,9801,196,2
35646340,28561,1600,2
35670272,3249,625,2
35692096,64,36,2
35710824,529,324,2
35731624,400,484,2
35752428,25,121,2
35772180,1849,0,2
35791940,2304,196,2
35813788,3844,900,2
35835636,256,4,2
35854356,289,1024,2
35876188,25,1296,2
35896988,324,289,2
35917776,1849,100,2
35939628,361,324,2
35960424,729,100,2
35981212,576,0,2
35999944,121,49,2
36019704,289,169,2
36040504,784,196,2
36061316,784,1,2
36080032,1225,289,2
36101844,4624,256,2
36123708,784,196,2
36144512,361,64,2
36164276,3969,169,2
36186092,14161,1,2
36206904,2025,169,2
36228744,225,100,2
36249536,900,196,2
36270344,1156,81,2
36291140,441,289,2
36311948,961,196,2
36332744,1225,4,2
36352504,0,0,2
36369140,5625,121,2
36391004,1369,324,2
36412832,144,169,2
36433616,1296,9,2
36453396,1225,36,2
36474188,2116,144,2
36496016,11664,144,2
36518892,4096,0,2
36538668,9,196,2
36557380,400,64,2
36577140,121,100,2
36597960,225,100,2
36618752,1444,1,2
36638504,196,144,2
36659296,361,49,2
36679060,169,64,2
36698824,625,36,2
36718580,1764,64,2
36739376,1681,169,2
36761224,169,4,2
36779932,4,256,2
36798672,0,25,2
36816352,441,9,2
36835064,1681,0,2
36854824,2401,169,2
36876672,2916,529,2
36898496,2704,225,2
36920348,1444,324,2
36942192,484,16,2
36961944,2704,196,2
36983780,1225,1,2
37003544,16,144,2
37023308,961,4,2
37042024,324,169,2
37062828,2601,144,2
37084656,324,9,2
37103384,324,484,2
37124188,169,9,2
37142900,576,36,2
37162668,289,25,2
37182420,900,25,2
37202192,529,1,2
37220916,625,4,2
37239628,484,0,2
37258352,400,121,2
37279132,1225,49,2
37299944,9,9,2
37316572,144,529,2
37337396,529,169,2
37358184,576,441,2
37378976,0,9,2
37395628,361,121,2
37416420,3844,196,2
37438256,1936,529,2
37460104,2401,361,2
37481948,2304,49,2
37502744,10000,2209,2
37526668,2401,256,2
37548496,1089,1521,2
37571388,441,900,2
37592200,529,100,2
37612984,1,484,2
37631696,2209,529,2
37653540,3600,1600,2
37676424,529,2116,2
37698260,64,25,2
37716968,784,1024,2
37738828,100,361,2
37759620,3969,1,2
37779400,1369,4,2
37799152,2401,25,2
37819940,81,49,2
37838656,1369,16,2
37859464,16,225,2
37879228,81,49,2
37897944,2401,841,2
37919788,2601,784,2
37941644,484,121,2
37962432,400,36,2
37982176,1764,64,2
38002992,676,9,2
38021720,841,81,2
38041476,25,100,2
38061236,1849,9,2
38080992,1444,0,2
38100732,1296,361,2
38122596,1681,100,2
38144428,1156,121,2
38166276,676,81,2
38186036,324,1,2
38204756,529,4,2
38223456,576,36,2
38243224,4,9,2
38259872,1369,49,2
38280668,676,441,2
38301468,400,64,2
38321236,2601,81,2
38342028,4356,289,2
38363864,1849,144,2
38385704,361,0,2
38404432,25,9,2
38422112,841,9,2
38440816,2116,100,2
38462664,1521,64,2
38483476,144,0,2
38502184,784,36,2
38521948,1024,25,2
38542756,3969,400,2
38564584,1521,49,2
38585396,961,25,2
38605156,361,25,2
38624912,1,0,2
38641552,841,100,2
38662364,5184,25,2
38683156,1521,100,2
38704984,361,25,2
38724752,784,4,2
38743464,400,49,2
38763224,9,0,2
38779860,361,4,2
38798592,2916,4,2
38818364,7744,676,2
38840200,729,100,2
38860988,256,100,2
38881788,121,9,2
38900504,121,81,2
38920276,529,9,2
38938996,36,49,2
38957712,1225,1,2
38977460,1156,64,2
38998284,121,36,2
39018020,3844,225,2
39039868,12544,784,2
39062748,1444,1089,2
39085632,1024,100,2
39107468,1156,9,2
39127236,49,100,2
39146984,225,0,2
39165704,2704,49,2
39186516,121,4,2
39205232,100,0,2
39223948,121,16,2
39243708,36,1,2
39261396,49,25,2
39280104,0,0,2
39296744,1849,289,2
39318576,1521,1600,2
39341472,1849,36,2
39362256,961,400,2
39383076,0,4,2
39399712,0,81,2
39417388,1521,1,2
39437144,0,169,2
39455880,0,1296,2
39475628,4096,1444,2
39498508,5329,1681,2
39521380,16900,1521,2
39545304,6561,576,2
39567144,1,64,2
39584816,5329,144,2
39606672,3969,121,2
39628500,1,289,2
39647216,5476,225,2
39669068,625,16,2
39688812,2304,729,2
39710652,49,196,2
39730420,196,324,2
39751208,361,64,2
39770984,0,25,2
39788672,9,36,2
39806356,0,144,2
39825056,676,4,2
39843780,484,729,2
39864592,1,121,2
39883308,289,9,2
39902040,49,169,2
39921792,289,169,2
39942588,49,16,2
39961296,2209,225,2
39983144,4624,784,2
40005000,16,169,2
40024732,3481,400,2
40046580,4096,2500,2
40069476,49,676,4
40089220,576,16,4
40108976,625,196,4
40129792,144,25,4
40149548,9,4,4
40166196,225,169,4
40187004,1444,361,4
40208832,169,16,4
40228580,121,9,4
40247312,1764,81,4
40268108,2025,441,4
40289944,784,225,4
40310752,25,9,4
40328424,529,121,4
40349220,49,169,4
40368976,0,25,4
40386668,1369,25,4
40407460,1089,256,4
40429304,324,49,4
40449072,169,16,4
40468828,121,49,4
40488584,529,25,4
40508332,289,144,4
40529152,81,121,4
40548908,256,81,4
40568664,784,16,4
40588432,676,4,4
40607140,324,16,4
40626920,289,81,4
40646676,8649,900,4
40668504,8836,1521,4
40691384,1156,289,4
40713212,1600,144,4
40735092,361,1,4
40753792,4,1225,4
40773536,5329,676,4
40795400,9216,441,4
40817240,1369,361,4
40839072,169,4,4
40857788,1,64,4
40875476,1681,1,4
40895244,1024,256,4
40917080,4,9,4
40933716,576,225,4
40954512,1936,1,4
40974272,2704,16,4
40995072,1156,729,4
41016912,225,25,4
41036668,784,100,4
41057464,961,4,4
41076196,1600,9,4
41095936,1369,64,4
41116764,784,0,4
41135480,64,4,4
41153152,0,81,4
41170824,64,121,4
41190600,484,361,4
41211400,324,4,4
41230104,676,4,4
41248824,2500,49,4
41269636,484,9,4
41288336,81,4,4
41306024,484,1,4
41324752,64,9,4
41342440,4,225,4
41361156,49,441,4
41380920,16,1,4
41398596,0,25,4
41416272,400,25,4
41436028,784,9,4
41454760,225,9,4
41473476,1,4,4
41490104,100,169,4
41510904,36,36,4
41529636,784,49,4
41549384,2116,144,4
41571228,16,484,4
41590992,3364,1,4
41610740,2116,25,4
41631536,49,49,4
41650264,5041,0,4
41670028,5476,4,4
41689792,625,49,4
41709548,36,4,4
41727244,36,36,4
41745948,961,16,4
41765696,1681,169,4
41787556,9,1,4
41804188,1369,36,4
41824972,1089,4,4
41844752,16,1,4
41862428,25,225,4
41882196,1,64,4
41899872,49,4,4
41917564,16,100,4
41937312,9,36,4
41954988,64,9,4
41972664,225,1,4
41991400,961,4,4
42010116,16,144,4
42029884,1936,49,4
42050684,5041,1,4
42070440,1444,81,4
42091240,144,1,4
42109956,1,121,4
42128676,144,100,4
42149480,529,16,4
42169220,5929,289,4
42191068,13225,289,4
42213952,6241,0,4
42233708,2025,121,4
42255548,64,36,4
42274268,2025,961,4
42296096,2809,324,4
42317952,1521,400,4
42339780,3136,16,4
42360572,23409,1764,4
42384500,22500,841,4
42407372,2025,100,4
42429228,441,400,4
42450020,4761,121,4
42471844,13924,16,4
42493688,0,2916,4
42513460,17956,5184,4
42537376,841,676,4
42558180,841,25,4
42577956,484,25,4
42597712,676,324,4
42618500,4,361,4
42637220,256,1936,4
42659068,2116,144,4
42680884,26569,625,4
42703776,1545,961,4
42725616,0,361,4
42744356,4,196,4
42763056,12769,169,4
42785948,81,49,4
42804652,2209,64,4
42825468,676,9,4
42844192,900,81,4
42863940,1225,121,4
42885788,8836,484,4
42907604,12544,1681,4
42931548,961,100,4
42952332,1369,400,4
42974176,2500,49,4
42994992,25,49,4
43013708,196,100,4
43034508,121,16,4
43054280,1089,9,4
43074036,3025,16,4
43094812,1369,9,4
43114604,2116,9,4
43134348,4900,16,4
43155152,25,4,4
43172804,4761,81,4
43193628,196,576,4
43214420,324,4225,4
43236260,25,1024,4
43257076,64,25,4
43275800,0,289,4
43294496,1156,64,4
43315320,2116,4,4
43335068,6561,196,4
43356900,21316,729,4
43379788,3969,1,4
43399540,6400,676,4
43421368,8100,3364,4
43444264,9,0,4
43460908,5625,0,4
43480644,10000,20449,4
43505604,30564,29729,4
43530564,9216,0,4
43550348,7396,289,4
43572176,1936,441,4
43594024,1369,400,4
43615852,256,6889,4
43637680,3025,9216,4
43660580,2809,64,4
43681392,49,0,4
43699048,900,3617,4
43720896,19881,26569,4
43745844,4160,0,4
43765600,13456,0,4
43786408,3844,121,4
43808252,169,1225,4
43830104,0,196,4
43848832,0,961,4
43867544,0,225,4
43886248,25281,4761,4
43910196,441,196,4
43930992,0,10201,4
43951772,17424,0,4
43972552,1024,0,4
43992340,441,22201,4
44015212,10816,8464,4
44039116,49,1521,4
44059924,19881,49,4
44081764,0,12544,4
44102552,28900,3025,4
44126488,4,18225,4
44147296,0,529,4
44166012,0,6241,4
44185780,676,1681,4
44207640,1,1600,4
44227360,20164,0,4
44248164,10404,6569,4
44272096,26896,21025,4
44297044,5625,20736,4
44320984,32041,32144,4
44345924,2500,0,4
44365684,3844,169,4
44387520,1156,4489,4
44410412,0,961,4
44429136,19600,3249,4
44453056,256,6288,4
44474888,100,17956,4
44497764,8836,36,4
44518592,121,5041,4
44540420,16384,2401,4
44564316,13225,2704,4
44588244,2401,13924,4
44612180,0,1369,4
44631940,32400,12996,4
44656900,484,14884,4
44679776,19321,0,4
44700560,9604,0,4
44720316,22201,0,4
44741136,1369,0,4
44760888,676,19044,4
44783768,3025,2809,4
44806672,3969,2601,4
44829524,961,29241,4
44852412,5476,24025,4
44876336,2601,324,4
44898176,225,400,4
44918992,13924,625,4
44941832,64,0,4
44959512,10201,28561,4
44984488,4761,4,4
45004248,196,9,4
45022980,81,144,4
45042744,100,36,4
45062512,1,1,4
45079144,19044,2809,4
45103032,0,16900,4
45123848,6889,6889,4
45146732,225,16,4
45166496,64,4,4
45184180,81,100,4
45203932,121,49,4
45223704,1,25,4
45241380,36,49,4
45260100,16,0,4
45277792,0,11664,4
45298584,29328,0,4
45319388,1681,14884,4
45343292,625,441,4
45364092,49,81,4
45382820,49,169,4
45402568,225,169,4
45423372,81,1,4
45441060,25,64,4
45459792,64,25,4
45478504,0,16,4
45496172,0,0,4
45512800,22201,0,4
45533612,5625,81,4
45554420,1,196,4
45573144,36,25,4
45591868,100,169,4
45612652,144,49,4
45632412,0,25,4
45650112,81,64,4
45668824,16,0,4
45686476,0,31684,4
45707296,11812,0,4
45728100,14884,36,4
45749924,225,9604,4
45771768,1,8649,4
45791548,2601,196,4
45813380,81,36,4
45832092,81,529,4
45851856,729,484,4
45872660,121,4,4
45891368,144,256,4
45912188,196,49,4
45931936,1,81,4
45949608,169,121,4
45970412,16,4,4
45988108,64,100,4
46007860,81,16,4
46026568,0,0,4
46043196,27889,16900,4
46068164,5220,8448,4
46091044,21904,0,4
46111860,4900,9,4
46131620,16,289,4
46151384,225,25,4
46171144,0,64,4
46188828,144,121,4
46209624,49,0,4
46227312,36,3364,4
46248112,196,12100,4
46270972,529,625,4
46291780,100,441,4
46312592,9,9,4
46329228,1369,1,4
46348972,3481,81,4
46369772,361,324,4
46390576,16,4,4
46408264,1,9,4
46424884,0,0,4
46441536,21904,0,4
46462340,5329,36,4
46483148,324,100,4
46503940,1225,25,4
46524740,81,400,4
46544492,121,81,4
46564256,4,16,4
46581940,81,81,4
46600660,49,9,4
46618340,4,49,4
46636028,7225,196,4
46657848,28900,1369,4
46681776,5929,729,4
46703636,0,361,4
46722340,25744,5184,4
46746224,25921,13988,4
46771212,0,25921,4
46792004,0,4900,4
46811772,64,1,4
46829448,484,324,4
46850264,25,16,4
46868976,169,289,4
46889784,225,49,4
46909544,4,81,4
46927224,121,100,4
46948020,16,1,4
46965700,49,81,4
46984432,49,21904,4
47006236,196,8448,4
47028084,4096,15376,4
47052024,2401,4,4
47071772,36,289,4
47091544,64,4,4
47109216,121,289,4
47130008,256,121,4
47150820,1,25,4
47168492,121,121,4
47189308,64,1,4
47206984,25,81,4
47225700,64,36,4
47244440,0,23104,4
47265220,529,19728,4
47288076,2809,13689,4
47312016,2401,121,4
47333868,144,17424,4
47356724,0,529,4
47375444,0,12544,4
47396248,1024,169,4
47418104,36,9,4
47435788,9,25,4
47453472,0,10609,4
47474264,8804,0,4
47494012,16384,28561,4
47518980,1600,3025,4
47541864,961,676,4
47562664,0,81,4
47580336,6569,8464,4
47603232,0,18225,4
47624036,3844,484,4
47645856,8281,441,4
47667684,81,7056,4
47688504,9,289,4
47707224,144,4,4
47725948,1,0,4
47742560,0,29584,4
47763360,11057,32041,4
47788324,13924,12769,4
47813284,24025,0,4
47834112,0,16900,4
47854880,0,11664,4
47875684,22801,15376,4
47900644,2704,484,4
47922528,0,7056,4
47942240,15617,20164,4
47967204,0,7905,4
47986980,20736,0,4
48007780,3600,25,4
48028576,576,49,4
48048348,25,25,4
48067072,0,9,4
48083704,9,4,4
48100320,0,0,4
48116972,24649,0,4
48137764,5184,1,4
48157540,121,36,4
48177300,9,16,4
48194996,64,81,4
48213716,484,0,4
48232408,16,18769,4
48254264,1,1545,4
48274004,1296,12321,4
48297928,2025,64,4
48318740,4,100,4
48337460,25,0,4
48355140,16,100,4
48374912,81,36,4
48393632,4,1,4
48410248,0,0,4
48426880,22201,0,4
48447700,5184,36,4
48468512,4,196,4
48487220,49,16,4
48505940,64,169,4
48525692,169,64,4
48545464,1,25,4
48563132,484,49,4
48582900,324,36,4
48602660,25,121,4
48622416,1600,2209,4
48645296,7056,7921,4
48668176,729,1369,4
48690032,400,3844,4
48711864,28561,13456,4
48736808,10000,28561,4
48761780,20900,0,4
48782560,28224,26569,4
48807528,2916,784,4
48829372,16,49,4
48848108,36,1,4
48865784,9,81,4
48883456,121,100,4
48904264,36,0,4
48921948,16,1936,4
48942736,144,9409,4
48964568,361,1849,4
48986428,169,36,4
49006180,4,16,4
49023864,16,4,4
49041536,16384,225,4
49064408,0,1849,4
49084160,8836,2025,4
49107056,25,4,4
49124736,25,0,4
49142424,25,64,4
49161136,8836,484,4
49182968,22801,5041,4
49206888,2809,2601,4
49229780,25,29241,4
49251620,29241,6084,4
49275520,12996,9025,4
49299484,0,10816,4
49320260,30625,784,4
49343132,121,13456,4
49366028,900,9,4
49384752,4,81,4
49402424,1,49,4
49420104,4356,13225,4
49444000,24336,0,4
49464812,841,7921,4
49486664,1936,49,4
49507468,1,16,4
49525148,0,36,4
49542820,25,16,4
49561536,4,0,4
49578184,29241,22801,4
49603132,16833,0,4
49623924,5329,28561,4
49647860,2401,64,4
49668668,169,14641,4
49691540,0,256,4
49710264,31329,16384,4
49735208,729,324,4
49756012,1296,100,4
49777860,9,144,4
49796580,16,225,4
49816340,4,16,4
49834024,81,25,4
49852740,16,4,4
49870420,1,9,4
49887040,0,0,4
49903688,24336,0,4
49924500,4489,0,4
49944252,100,81,4
49964016,49,0,4
49981708,4,49,4
49999384,64,64,4
50018116,25,0,4
50035784,676,0,4
50054500,24649,25,6
50076332,25600,3721,6
50100252,0,0,6
50116888,11057,11328,6
50141848,29328,0,6
50162640,2916,0,6
50182420,5476,25,6
50203224,64,256,6
50222980,169,25,6
50242748,0,49,6
50260416,121,121,6
50281224,36,0,6
50298908,36,64,6
50317608,0,11025,6
50338412,11057,0,6
50359192,15625,11449,6
50384180,625,441,6
50404984,16,49,6
50423692,225,256,6
50444508,144,25,6
50464268,9,100,6
50482976,144,100,6
50503788,16,4,6
50521472,64,81,6
50540184,49,9,6
50557864,4,529,6
50576560,0,21316,6
50597384,14089,21489,6
50622324,14884,9604,6
50646268,2025,10000,6
50670156,0,13689,6
50690960,29241,0,6
50711780,1849,1,6
50731544,36,121,6
50751300,144,36,6
50771060,4,16,6
50788748,64,81,6
50807468,15376,225,6
50830320,0,3136,6
50850092,11881,1600,6
50874020,25,9,6
50891688,225,64,6
50911472,0,36,6
50929136,196,225,6
50949932,100,9,6
50968660,9,64,6
50986340,81,1296,6
51007136,5476,2500,6
51030004,19321,121,6
51052900,5329,576,6
51074752,5776,729,6
51096536,3721,0,6
51116360,10404,0,6
51137152,3364,1156,6
51160012,441,2209,6
51181868,36,1089,6
51202660,100,36,6
51222416,81,49,6
51241140,36,25,6
51259864,4,1,6
51276512,9,81,6
51294160,0,0,6
51310816,25600,0,6
51331608,4761,9,6
51351384,81,49,6
51370100,9,16,6
51387780,25,64,6
51406504,49,100,6
51426256,0,121,6
51444992,0,16129,6
51465792,0,9540,6
51485552,7225,21609,6
51509464,2704,256,6
51531300,196,25,6
51551040,100,23104,6
51573912,13225,8464,6
51597868,256,5220,6
51619664,0,0,6
51636300,0,11449,6
51657136,169,0,6
51675856,1296,16260,6
51699776,2209,1936,6
51722656,784,11449,6
51745528,324,4624,6
51767384,36,10000,6
51789208,784,9025,6
51811048,1936,100,6
51832880,9409,3721,6
51855764,25921,2209,6
51879680,7921,196,6
51901520,9216,6561,6
51924428,2304,0,6
51944168,0,23716,6
51964980,15689,0,6
51985788,3844,24336,6
52009704,29929,2809,6
52033620,784,18769,6
52056468,2025,0,6
52076244,900,0,6
52094996,0,0,6
52111608,11881,0,6
52132428,3364,16260,6
52156332,2064,24964,6
52180228,0,1600,6
52199976,4225,1,6
52219736,49,1225,6
52240544,3249,3364,6
52263448,23104,10000,6
52288428,625,25,6
52308192,9216,4900,6
52331060,100,784,6
52351868,121,5184,6
52373712,441,8100,6
52395504,3633,5929,6
52418380,17424,841,6
52441276,1225,2401,6
52464172,0,0,6
52480780,0,19145,6
52501596,0,14884,6
52522420,1369,6724,6
52545284,784,7744,6
52567144,2916,289,6
52588980,1089,289,6
52610820,1296,1521,6
52633688,0,0,6
52650344,23409,26273,6
52675272,17161,10089,6
52700232,3721,0,6
52720000,2500,49,6
52740796,484,361,6
52761584,2116,12100,6
52785540,31329,576,6
52808416,2809,676,6
52830264,36,441,6
52850020,625,3364,6
52871844,10201,0,6
52892640,81,4356,6
52913444,7921,8281,6
52936308,1156,49,6
52957112,5184,4,6
52976872,144,256,6
52997664,361,169,6
53018464,676,121,6
53039272,36,1,6
53056976,36,100,6
53076720,1,36,6
53094388,361,9,6
53113116,4,81,6
53130808,12996,169,6
53153696,0,3136,6
53173432,289,5776,6
53195272,1225,0,6
53215036,3481,25,6
53235832,2500,841,6
53257692,4,81,6
53275352,121,9,6
53294084,144,100,6
53314880,3969,196,6
53336688,18769,1156,6
53360648,0,22801,6
53381464,1521,8281,6
53404336,36,1600,6
53425136,2116,196,6
53446992,2401,676,6
53468828,5625,1225,6
53491688,11025,21316,6
53516636,1849,14400,6
53540564,3364,30976,6
53564500,4761,4489,6
53587384,64,4,6
53605052,441,256,6
53625848,441,1681,6
53647712,484,2025,6
53669532,5476,13689,6
53693436,1849,576,6
53715288,7056,7569,6
53738148,1024,100,6
53760024,5929,29584,6
53783936,0,7744,6
53803708,1444,1,6
53823456,2304,36,6
53844276,100,4225,6
53866096,3249,961,6
53887936,5929,4,6
53907692,29584,1225,6
53931600,5329,1936,6
53954464,5929,9025,6
53977356,784,529,6
53998156,16900,2809,6
54022088,100,30976,6
54044992,7921,11664,6
54068880,26244,18225,6
54093840,4489,1156,6
54116724,4489,900,6
54138568,0,18769,6
54159384,0,1,6
54175992,676,0,6
54194708,8836,10404,6
54218636,10609,22801,6
54243608,1521,16641,6
54267532,9,49,6
54285204,3969,7569,6
54308100,9216,31684,6
54332012,0,3844,6
54351748,2601,4096,6
54374636,1,2809,6
54394384,2601,2401,6
54417268,3249,4489,6
54440172,16,1024,6
54460984,1849,4356,6
54483848,9409,625,6
54505712,10609,676,6
54528576,16,0,6
54546256,2304,15120,6
54570164,1764,697,6
54591996,12769,0,6
54612792,6241,3969,6
54635672,5184,121,6
54657548,64,12996,6
54679380,256,256,6
54700188,81,4356,6
54720976,7921,324,6
54742820,8836,484,6
54764676,1936,2304,6
54787540,0,19321,6
54808344,4,3600,6
54828092,576,15376,6
54850972,2809,10201,6
54874876,4225,2401,6
54897772,16384,17956,6
54922720,144,16,6
54942496,121,3249,6
54964348,1681,3600,6
54987212,2304,4356,6
55010108,3025,784,6
55031920,6084,256,6
55053752,484,3136,6
55075600,4356,225,6
55097460,900,0,6
55116176,1936,0,6
55135932,3481,3364,6
55158828,529,0,6
55177556,9025,10609,6
55201452,5476,2304,6
55224356,6084,256,6
55246176,3481,6241,6
55269028,21025,169,6
55291940,21904,196,6
55314804,1849,1600,6
55337700,3025,0,6
55357452,17161,16129,6
55382432,0,3136,6
55402188,6084,169,6
55424032,7056,676,6
55445848,9216,19044,6
55469760,2025,1600,6
55492636,64,3481,6
55513448,121,225,6
55534244,6400,25,6
55555040,441,10816,6
55577944,16900,10816,6
55602896,2209,12321,6
55626812,0,0,6
55643472,0,1545,6
55663220,0,10404,6
55684016,625,256,6
55704828,9,7744,6
55724588,400,17689,6
55747440,11236,0,6
55768244,3249,12544,6
55792132,7921,2809,6
55815048,25600,5184,6
55838988,11664,10816,6
55863936,7225,18769,6
55887816,21904,14641,6
55912776,5041,4624,6
55935688,6724,24025,6
55959612,2025,11025,6
55983524,1521,10201,6
56007448,17956,13924,6
56032404,1225,9409,6
56055288,12321,11881,6
56080252,3600,16,6
56101056,361,1024,6
56122892,729,36,6
56142656,2304,961,6
56164500,0,15876,6
56185272,3364,2704,6
56208168,0,484,6
56226880,3969,19600,6
56250780,1681,1369,6
56273672,64,3844,6
56294488,3481,1089,6
56317372,14641,961,6
56340252,9025,196,6
56362116,1,3025,6
56381856,9409,2500,6
56404724,2809,0,6
56424504,3025,1545,6
56447360,19600,6084,6
56471268,20449,1296,6
56495236,0,0,6
56511836,25744,22080,6
56536824,28068,26880,6
56561784,0,10816,6
56582592,676,8100,6
56604412,12996,9604,6
56628312,4096,1225,6
56651180,5476,0,6
56670936,36,1156,6
56691752,625,1225,6
56713628,26569,19321,6
56738576,144,441,6
56759376,4761,7396,6
56782264,1,1764,6
56802032,1296,1681,6
56824888,32761,24649,6
56849812,5625,7396,6
56872692,225,841,6
56893532,32041,0,6
56914332,19881,3600,6
56938264,0,441,6
56956996,7921,900,6
56978832,1444,3136,6
57001708,2025,5041,6
57024576,18496,5929,6
57048456,3600,5776,6
57071332,1936,484,6
57093224,11881,0,6
57114004,81,13689,6
57135852,81,2401,6
57156656,64,484,6
57176424,2401,3600,6
57199312,3721,1849,6
57222164,0,2025,6
57241932,0,1024,6
57261692,900,6889,6
57283528,6889,21609,6
57307416,25600,5929,6
57331360,15876,3481,6
57355292,0,4096,6
57375056,24336,121,6
57397940,2601,256,6
57419788,25,25,6
57438508,2304,3600,6
57461384,2304,1089,6
57484252,0,29241,6
57505020,0,21904,6
57525828,400,5041,6
57547652,1,6084,6
57567428,1024,3844,6
57590288,441,1296,6
57612180,10609,18496,6
57637144,1296,3481,6
57660024,11025,3721,6
57683900,0,0,6
57700596,0,0,6
57717212,26569,6561,6
57741128,7225,4900,6
57764024,1936,3364,6
57786856,15376,2025,6
57810820,196,1296,6
57832656,7225,21904,6
57856568,324,4900,6
57878412,289,1936,6
57900260,9409,10816,6
57924136,28100,21904,6
57949096,11025,1296,6
57973056,0,0,6
57989668,0,0,6
58006312,0,16129,6
58027108,6889,36,6
58047888,1369,3249,6
58070812,5329,13924,6
58094740,6561,8100,6
58117616,1296,1936,6
58140488,4,26244,6
58161320,11881,1444,6
58185212,0,529,6
58203908,19600,1225,6
58227824,256,4761,6
58249692,4624,441,6
58271552,9604,0,6
58291292,3364,0,6
58311064,3025,5476,6
58333940,24025,484,6
58356840,12769,729,6
58379708,11449,196,6
58402556,2304,0,6
58422316,11664,25921,6
58447256,7396,1024,6
58470164,23716,7396,6
58494096,1,8649,6
58513860,441,4624,6
58535704,169,169,6
58556520,1,2500,6
58576272,4761,900,6
58598108,1849,484,6
58619932,121,11025,6
58642800,900,8100,6
58664628,25,9,6
58682304,2209,36,6
58703108,900,2116,6
58724952,16641,625,6
58747816,1936,841,6
58769692,324,5625,6
58791528,27556,1521,6
58815440,12769,676,6
58838348,5329,961,6
58860172,7056,17956,6
58884104,0,324,6
58902792,3844,121,6
58924636,100,2601,6
58946452,1369,3364,6
58969368,18769,8100,6
58993288,3969,3969,6
59016164,23104,11881,6
59041132,8281,0,6
59060872,21025,20736,6
59085828,27225,1444,6
59109764,12769,24025,6
59134728,10201,2916,6
59158660,2500,3364,6
59181520,24025,225,6
59204396,13924,2704,6
59228328,9409,1444,6
59251212,16641,18769,6
59276172,25,4761,6
59296984,3249,15376,6
59320892,0,19728,6
59341688,5776,2209,6
59364568,10000,1,6
59385344,1849,4225,6
59408232,9604,14161,6
59432188,0,9604,6
59451944,0,22500,6
59472744,100,64,6
59492516,529,784,6
59513304,625,225,6
59534112,2704,961,6
59555956,16,400,6
59575720,25,64,6
59594428,16,225,6
59614188,64,36,6
59632920,1024,441,6
59654764,625,36,6
59674504,144,441,6
59695312,49,3969,6
59716108,0,11881,6
59736908,5776,6241,6
59759764,2916,29929,6
59783660,4225,27225,6
59807620,6561,11025,6
59831528,14161,361,6
59854412,3249,576,6
59876256,144,0,6
59895000,3600,5041,6
59917864,29929,10000,6
59942788,4489,1936,6
59965680,4900,7056,6
59988576,30976,0,6
60009376,9409,900,6
60031224,3025,2025,6
60054104,1681,6084,2
60076980,13689,2601,2
60100884,23409,0,2
60121692,18225,16384,2
60146664,400,11881,2
60169540,0,1225,2
60189300,4761,324,2
60211136,676,361,2
60231948,64,441,2
60251700,6889,2116,2
60274584,3721,1681,2
60297464,24025,1225,2
60321368,5329,1600,2
60344228,1,1681,2
60363984,256,1600,2
60385824,0,6084,2
60405592,1296,1521,2
60428500,0,0,2
60445104,13425,0,2
60465896,24025,17424,2
60490904,15376,15129,2
60515852,0,29584,2
60536652,6400,3136,2
60559516,0,6084,2
60579304,27889,0,2
60600056,6084,900,2
60621948,841,2704,2
60643732,2704,3600,2
60666648,6561,19881,2
60690588,11881,3364,2
60714504,0,2809,2
60734248,5329,1156,2
60757132,625,20164,2
60780004,18496,4225,2
60803900,1936,1089,2
60826824,15376,31329,2
60851768,4,0,2
60868424,1681,4,2
60888180,5625,625,2
60910028,576,6889,2
60931860,11664,3364,2
60955776,5625,0,2
60975536,0,5625,2
60995304,7744,6889,2
61018172,17689,29241,2
61043100,441,81,2
61062872,2704,1521,2
61085796,11881,14884,2
61110740,2025,3481,2
61133612,3025,32400,2
61157516,31684,1225,2
61181432,11236,3969,2
61205368,676,7569,2
61227220,1764,8100,2
61250088,19044,2401,2
61274020,100,225,2
61294816,2601,11025,2
61318716,0,3600,2
61338472,3844,784,2
61360336,18769,1521,2
61384252,36,8100,2
61405060,225,20164,2
61427944,19600,9604,2
61451856,11449,16,2
61473692,9409,6084,2
61496580,5929,1156,2
61519440,5184,2401,2
61542328,625,5929,2
61564148,3249,9801,2
61587052,30625,961,2
61609928,1089,256,2
61631784,31684,676,2
61654644,15129,14161,2
61679616,4761,6561,2
61702504,17161,1156,2
61726412,0,10609,2
61747228,3364,1681,2
61770108,3844,4,2
61789864,9025,400,2
61811696,3844,225,2
61833540,14161,256,2
61856424,11449,1296,2
61880336,81,2601,2
61901148,729,16,2
61920892,400,121,2
61941684,1369,36,2
61962500,324,1,2
61981220,25,484,2
62000976,2916,400,2
62022832,3600,11025,2
62046748,1156,2401,2
62069632,49,36,2
62088360,1296,1764,2
62111208,961,11449,2
62134112,1156,484,2
62155964,144,0,2
62174660,400,4,2
62193372,16,225,2
62213140,361,2025,2
62234992,361,3600,2
62256824,9,196,2
62275524,81,196,2
62295304,1,361,2
62314012,16,1296,2
62334816,64,625,2
62354592,36,225,2
62374360,225,25,2
62394120,9,100,2
62412816,361,900,2
62433640,0,576,2
62452356,144,100,2
62473140,0,784,2
62491880,9,529,2
62510604,16,961,2
62530356,144,961,2
62551156,256,121,2
62571952,100,441,2
62592752,121,0,2
62611484,100,289,2
62632272,64,1024,2
62653064,361,121,2
62673856,484,225,2
62694660,4356,324,2
62716512,2809,4,2
62736272,169,169,2
62757076,36,196,2
62776832,4,0,2
62793476,4,256,2
62812196,1,256,2
62830912,121,841,2
62851712,576,1369,2
62873544,400,4,2
62892280,121,484,2
62913080,225,1296,2
62934900,121,16,2
62954672,16,400,2
62974436,0,1,2
62991064,529,169,2
63011880,625,324,2
63032680,64,64,2
63051384,9,225,2
63070104,0,256,2
63088844,16,36,2
63107552,49,1,2
63125220,0,289,2
63143956,1,144,2
63162676,100,441,2
63183472,324,784,2
63204268,289,16,2
63224028,361,36,2
63243796,100,9,2
63262500,81,529,2
63282272,100,324,2
63303084,4,4,2
63319716,441,729,2
63340508,529,576,2
63361324,81,0,2
63378992,1,441,2
63397704,225,1089,2
63419548,324,144,2
63440348,529,900,2
63461144,196,529,2
63481948,81,36,2
63500692,196,441,2
63521476,64,324,2
63541228,4,9,2
63557876,100,676,2
63578676,0,784,2
63597388,196,100,2
63618192,289,841,2
63638984,289,4489,2
63660840,100,729,2
63681632,100,256,2
63702440,0,49,2
63720108,361,961,2
63740908,784,576,2
63761728,900,4,2
63780428,121,625,2
63801228,484,841,2
63822036,361,121,2
63842844,4,64,2
63860504,49,841,2
63880280,1,256,2
63898996,49,49,2
63917712,25,0,2
63935392,1,49,2
63953076,16,36,2
63971788,36,0,2
63989472,484,324,2
64010284,900,729,2
64031080,484,81,2
64050832,361,1,2
64069544,144,64,2
64089324,36,289,2
64109080,0,1,2
64125704,289,625,2
64146516,196,256,2
64167320,0,16,2
64184988,9,0,2
64201632,4,4,2
64218264,400,1089,2
64240108,1225,1369,2
64262984,36,576,2
64282764,100,361,2
64303552,256,49,2
64323312,4,49,2
64340984,900,256,2
64361800,324,144,2
64382592,25,1,2
64400264,81,441,2
64420040,100,441,2
64440836,64,25,2
64459548,441,100,2
64480368,441,49,2
64500116,256,289,2
64520908,676,0,2
64539632,484,256,2
64560444,25,9,2
64578116,64,225,2
64597876,9,196,2
64616596,64,0,2
64634284,4,9,2
64650912,0,25,2
64668568,100,196,2
64689388,121,1681,2
64711236,64,2025,2
64732032,100,324,2
64752848,64,144,2
64772588,49,49,2
64791308,64,9,2
64808988,361,4,2
64827720,25,36,2
64846436,25,4,2
64864108,0,36,2
64881792,0,0,2
64898432,144,1296,2
64920268,225,1369,2
64942128,36,4,2
64959800,529,361,2
64980588,729,1024,2
65002428,144,576,2
65023240,441,100,2
65044036,36,4,2
65061712,4,9,2
65078352,169,784,2
65099152,400,441,2
65119952,16,49,2
65138660,289,400,2
65159472,576,400,2
65180276,1,169,2
65198988,169,900,2
65219796,324,289,2
65240604,196,1,2
65259316,49,361,2
65279080,361,484,2
65299884,36,225,2
65319632,144,1,2
65338336,16,49,2
65357084,0,49,2
65374764,9,361,2
65393468,36,0,2
65411164,49,9,2
65428828,16,324,2
65448584,0,81,2
65466260,121,25,2
65486048,256,49,2
65505796,4,9,2
65522424,0,9,2
65539068,169,121,2
65559884,225,169,2
65580680,49,4,2
65598348,0,225,2
65617080,9,256,2
65635800,4,729,2
65654508,100,324,2
65675308,169,121,2
65696104,9,784,2
65714828,100,0,2
65733544,16,100,2
65753320,16,4,2
65770992,9,4,2
65787636,25,49,2
65806356,1,49,2
65824032,1,400,2
65842760,4,289,2
65861476,0,25,2
65879168,4,1,2
65895792,144,900,2
65916596,256,289,2
65937384,25,400,2
65957160,121,64,2
65976916,1024,121,2
65998748,36,1369,2
66019556,36,256,2
66039324,0,49,2
66056992,400,225,2
66077796,529,784,2
66098596,36,361,2
66118360,4,4,2
66134992,36,324,2
66154764,100,361,2
66175556,144,4,2
66194272,64,4,2
66211960,4,25,2
66229632,81,36,2
66248344,0,16,2
66266028,16,196,2
66285792,144,225,2
66306604,49,484,2
66326352,289,16,2
66346120,25,64,2
66364848,9,25,2
66382520,1,25,2
66400188,16,0,2
66417876,196,64,2
66437624,324,4,2
66456356,484,1,2
66475084,36,64,2
66493800,81,225,2
66513560,1,25,2
66531228,0,9,2
66547860,25,49,2
66566592,9,1,2
66583232,144,100,2
66604032,324,16,2
66623804,36,121,2
66643556,16,1,2
66661236,169,36,2
66680992,36,4,2
66698664,16,4,2
66716360,16,144,2
66736104,9,196,2
66754848,0,529,2
66773560,9,576,2
66792268,1,16,2
66809964,4,36,2
66827640,256,81,2
66847388,361,1,2
66866112,49,1,2
66883800,64,16,2
66902520,36,196,2
66922264,4,64,2
66939960,100,49,2
66959724,49,16,2
66978436,196,196,2
66999224,169,144,2
67020044,9,0,2
67036680,81,25,2
67055396,81,0,2
67073088,16,16,2
67091788,256,324,2
67112592,169,25,2
67132340,81,4,2
67150040,1,4,2
67166672,144,4,2
67185404,529,225,2
67206200,100,441,2
67227000,16,144,2
67246752,25,49,2
67265468,9,81,2
67283156,256,100,2
67303964,256,256,2
67324748,49,225,2
67344516,64,36,2
67363236,64,0,2
67380912,36,16,2
67399632,1,36,2
67417324,9,16,2
67434996,64,400,2
67454752,9,121,2
67473484,36,36,2
67492192,196,225,2
67512988,36,36,2
67531696,64,100,2
67551484,25,16,2
67570196,9,0,2
67586836,0,49,2
67604520,169,225,2
67625320,144,121,2
67646116,0,4,2
67662748,121,16,2
67682528,144,49,2
67702272,4,36,2
67719956,9,25,2
67737640,4,9,2
67754280,169,729,2
67775068,64,841,2
67794832,16,144,2
67814608,361,1,2
67833320,400,49,2
67853064,169,225,2
67873872,36,9,2
67891556,25,324,2
67911316,0,49,2
67928992,4,25,2
67946668,36,0,2
67964344,25,36,2
67983076,9,256,2
68001784,0,225,2
68020516,4,64,2
68038204,1,4,2
68054840,100,36,2
68074600,1,1,2
68091240,1,49,2
68108908,36,25,2
68127628,0,49,2
68145320,25,16,2
68164024,225,36,2
68183788,16,64,2
68202520,64,1,2
68220212,16,1,2
68237876,9,169,2
68256596,9,36,2
68274284,100,441,2
68295072,100,625,2
68315876,100,36,2
68335632,256,25,2
68355396,64,25,2
68374116,25,64,2
68392836,144,0,2
68411560,289,4,2
68430276,121,144,2
68451064,4,1,2
68467700,81,9,2
68485400,4,16,2
68503080,25,1,2
68520752,100,0,2
68539476,144,16,2
68559236,81,36,2
68577964,36,0,2
68595628,4,9,2
68612272,81,484,2
68632032,64,324,2
68651796,4,49,2
68669472,36,1,2
68687160,4,4,2
68703792,16,36,2
68722512,49,49,2
68741232,9,0,2
68757876,16,25,2
68776608,1,4,2
68793232,100,256,2
68814032,196,144,2
68834848,100,9,2
68853556,16,121,2
68873316,100,144,2
68894124,4,9,2
68910760,9,484,2
68929468,1,225,2
68948196,121,4,2
68966908,144,0,2
68985636,0,16,2
69003320,16,4,2
69020996,81,100,2
69040760,36,100,2
69060512,9,1,2
69077164,0,36,2
69094836,256,36,2
69114592,36,25,2
69133308,64,81,2
69152044,9,49,2
69169720,576,81,2
69189468,484,225,2
69210284,1,4,2
69226916,484,16,2
69246664,841,49,2
69266432,169,0,2
69285156,0,49,2
69302836,1,225,2
69321548,49,576,2
69341312,100,25,2
69361084,121,225,2
69381880,225,169,2
69402692,1,225,2
69421396,196,100,2
69442192,256,36,2
69461940,100,225,2
69482756,0,36,2
69500456,4,36,2
69518108,16,4,2
69535796,4,4,2
69552444,100,144,2
69573232,361,81,2
69592992,81,9,2
69610684,9,1,2
69627320,1,36,2
69644996,100,0,2
69663708,49,25,2
69682436,64,25,2
69701156,144,0,2
69719872,576,1,2
69738596,841,144,2
69759404,100,400,2
69780192,1,9,2
69796824,36,0,2
69814516,64,0,2
69832200,144,1,2
69850916,36,4,2
69868604,0,4,2
69885244,1,36,2
69902912,81,9,2
69920588,16,16,2
69939316,1,4,2
69955956,0,16,2
69973624,64,16,2
69992360,9,1,2
70009008,36,4,2
70026680,1,16,2
70044356,0,9,2
70060976,49,9,4
70078676,0,64,4
70096356,1,36,4
70114036,0,16,4
70131708,16,144,4
70151488,9,1,4
70168128,16,1,4
70185796,16,9,4
70203464,81,25,4
70222196,64,0,4
70239868,169,0,4
70258596,16,9,4
70276280,25,1,4
70293948,0,16,4
70311636,0,49,4
70329308,36,0,4
70346996,36,9,4
70364668,0,0,4
70381316,1,4,4
70397940,64,25,4
70416684,49,4,4
70434356,1,1,4
70450992,196,36,4
70470760,289,4,4
70489484,196,16,4
70509236,100,0,4
70527940,0,16,4
70545640,4,1,4
70562272,169,4,4
70581008,169,1,4
70599720,4,9,4
70616356,0,0,4
70633000,4,16,4
70650680,36,9,4
70668364,64,25,4
70687084,4,36,4
70704744,16,0,4
70722428,9,1,4
70739076,25,36,4
70757808,4,4,4
70774432,9,0,4
70791068,64,36,4
70809808,16,9,4
70827476,36,0,4
70845152,36,9,4
70862832,4,0,4
70879480,49,64,4
70898200,25,4,4
70915864,1,0,4
70932516,4,1,4
70949164,49,121,4
70968912,9,25,4
70986596,9,9,4
71003232,4,0,4
71019872,36,16,4
71038596,1,16,4
71056276,4,1,4
71072916,16,9,4
71090596,81,36,4
71109316,25,0,4
71127000,1,0,4
71143640,1,0,4
71160272,0,25,4
71177952,100,4,4
71196668,25,9,4
71214352,4,9,4
71231004,4,100,4
71249716,0,1,4
71266364,1,0,4
71283004,4,0,4
71299636,64,9,4
71317316,1,36,4
71335000,16,4,4
71352672,0,0,4
71369316,64,81,4
71388028,64,0,4
71405720,0,49,4
71423404,9,16,4
71441068,16,9,4
71458752,9,36,4
71476440,9,4,4
71493072,1,4,4
71509720,100,9,4
71528436,25,9,4
71546124,9,16,4
71563800,16,0,4
71581476,81,0,4
71599160,64,25,4
71617876,25,0,4
71635544,0,4,4
71652188,16,0,4
71669884,0,49,4
71687564,64,0,4
71705240,100,9,4
71723960,25,0,4
71741644,25,0,4
71759312,1,25,4
71777000,16,0,4
71794672,25,16,4
71813400,0,49,4
71831080,81,0,4
71848756,64,36,4
71867480,0,9,4
71884128,36,9,4
71901804,100,4,4
71920516,1296,100,4
71942348,3136,81,4
71963152,16900,400,4
71986020,2304,1156,4
72008916,4356,16,4
72029696,1296,7569,4
72052580,676,9604,4
72074416,12544,11025,4
72099372,26569,6561,4
72123256,6889,0,4
72143020,3364,30625,4
72166940,49,2704,4
72187768,0,676,4
72206472,24025,11025,4
72231472,144,0,4
72250184,11881,0,4
72270980,196,11236,4
72293848,0,32400,4
72314652,9801,23104,4
72338588,8448,225,4
72360404,625,15129,4
72383280,196,2704,4
72405132,8836,1296,4
72428020,36,100,4
72447764,1024,1296,4
72470652,1024,9801,4
72493540,1,3249,4
72513288,14641,15625,4
72538252,11236,1681,4
72562196,0,1764,4
72581924,29584,2601,4
72605852,484,22201,4
72628728,6084,14161,4
72652628,17161,0,4
72673440,10201,0,4
72694240,8281,1024,4
72717136,529,784,4
72737940,49,225,4
72757692,729,961,4
72778496,484,49,4
72798260,64,324,4
72818020,441,225,4
72838820,25,36,4
72857532,225,324,4
72878344,144,16,4
72898096,25,144,4
72917852,169,81,4
72937616,9,16,4
72955292,64,100,4
72975052,64,4,4
72992740,13924,9,4
73013524,0,2304,4
73033304,14400,2025,4
73057212,3136,4,4
73076984,81,196,4
73096736,36,144,4
73116496,169,144,4
73137300,49,1,4
73154980,16,64,4
73173704,49,16,4
73192424,2500,0,4
73212192,2025,400,4
73234012,784,16,4
73253772,729,361,4
73274588,49,16,4
73293292,1,16,4
73310980,23716,4,4
73331788,3721,144,4
73353608,0,3600,4
73373380,0,8836,4
73393128,6400,144,4
73414972,784,5625,4
73436812,961,24336,4
73459692,4356,2916,4
73482556,9025,0,4
73502344,11449,0,4
73523124,7569,7921,4
73546016,1936,576,4
73567860,729,121,4
73588656,64,49,4
73607388,81,25,4
73626100,1,1,4
73642736,16,16,4
73661460,9,0,4
73678096,0,0,4
73694728,24649,0,4
73715524,5041,0,4
73735304,121,49,4
73755060,9,4,4
73771712,64,64,4
73790428,400,4,4
73809152,0,11025,4
73829936,0,23716,4
73850752,7056,289,4
73872568,121,5476,4
73894424,400,25,4
73914180,49,324,4
73933936,289,121,4
73954732,4,49,4
73972420,144,144,4
73993216,81,1,4
74010912,3025,16,4
74031700,576,361,4
74052492,4096,1,4
74072264,1369,784,4
74094112,64,4,4
74111792,3481,4,4
74131552,2401,900,4
74153372,784,1,4
74172116,1849,625,4
74193944,961,9,4
74212660,36,4,4
74230348,0,6724,4
74250092,0,0,4
74266732,0,0,4
74283360,9604,0,4
74303132,7056,4,4
74322888,324,25,4
74342664,100,169,4
74363448,49,16,4
74382180,0,16,4
74399868,25,16,4
74418604,1,0,4
74435200,0,16129,4
74455996,0,6084,4
74475780,0,4,4
74492428,196,49,4
74512184,0,25,4
74529860,7225,4096,4
74552716,14161,24964,4
74577688,729,7225,4
74599552,0,30976,4
74620320,27889,14161,4
74645296,1369,3249,4
74668196,49,29929,4
74690016,10000,14641,4
74714968,1444,1296,4
74737876,30276,3364,4
74761764,19881,25281,4
74786744,19881,0,4
74807556,4096,6241,4
74830412,21025,0,4
74851204,8649,0,4
74870976,8464,121,4
74892816,81,64,4
74911544,16,1,4
74929232,6561,100,4
74951048,22500,576,4
74973936,3364,841,4
74995792,9,4,4
75012420,9,0,4
75029064,0,144,4
75047776,0,49,4
75065452,0,31329,4
75086240,30625,32400,4
75111200,11193,0,4
75132008,28561,0,4
75152812,7225,289,4
75174644,1,169,4
75193380,4,100,4
75212104,196,225,4
75232900,121,9,4
75251620,16,64,4
75270348,100,49,4
75290100,1,9,4
75306748,0,32400,4
75327560,0,0,4
75344176,289,0,4
75362888,1369,30625,4
75386820,6084,7921,4
75409688,0,3969,4
75429456,0,27556,4
75450236,26896,5625,4
75474180,9409,1444,4
75497076,0,16129,4
75517852,0,3600,4
75537632,2809,36,4
75558428,1600,5625,4
75581296,900,3844,4
75603144,49,676,4
75622900,81,100,4
75642656,121,81,4
75662420,36,4,4
75680104,4,16,4
75697784,25,6561,4
75718568,100,23409,4
75741452,1225,4761,4
75764344,729,9,4
75783056,4,100,4
75801780,5625,49,4
75822560,17956,289,4
75845448,13456,1444,4
75869360,6241,0,4
75889140,0,0,4
75905768,12321,0,4
75926592,8836,16833,4
75950488,12864,3721,4
75974408,31684,0,4
75995228,0,256,4
76013940,0,7396,4
76033688,196,81,4
76053440,9216,1849,4
76076348,27225,6400,4
76100232,23104,7225,4
76124176,49,30276,4
76146028,400,8836,4
76167856,0,3136,4
76187612,15129,0,4
76208412,256,11664,4
76231288,900,400,4
76252084,961,9,4
76270824,225,289,4
76291620,289,100,4
76312420,0,64,4
76330100,144,121,4
76350896,36,0,4
76368584,9604,400,4
76390392,0,1156,4
76410188,0,4225,4
76429936,0,7921,4
76449692,16129,3600,4
76473612,28224,676,4
76496492,0,0,4
76513124,0,0,4
76529760,4489,21609,4
76553692,3721,1,4
76573464,4096,1,4
76593216,14884,729,4
76616100,31329,1521,4
76639988,256,0,4
76658728,4624,0,4
76678500,4096,16,4
76699300,64,25,4
76718012,64,100,4
76737780,784,196,4
76758580,12100,3364,4
76782488,2916,13924,4
76806416,27889,13425,4
76831352,7056,0,4
76851128,8281,169,4
76872956,100,0,4
76891704,0,0,4
76908336,0,2916,4
76928108,8649,4489,4
76950972,7921,144,4
76972820,8836,1936,4
76995708,2704,4356,4
77018584,3025,2209,4
77041440,8100,8649,4
77064336,16129,15625,4
77089292,625,2116,4
77111120,6084,24649,4
77135060,9604,15625,4
77158964,22201,7569,4
77182868,24649,8281,4
77206832,9025,0,4
77226580,900,0,4
77245288,4096,576,4
77267156,1764,4,4
77286892,13225,1369,4
77310808,14641,25,4
77332656,1444,5041,4
77355548,1681,6241,4
77378396,32041,32400,4
77403368,16900,0,4
77424188,22801,0,4
77444972,1024,0,4
77464752,5184,36,4
77485544,1681,25,4
77506332,8464,7569,4
77529208,2401,21904,4
77553132,0,24649,4
77573932,15876,14884,4
77598888,2209,0,4
77618660,1600,0,4
77638396,4356,18225,4
77662344,11881,4096,4
77686244,0,19600,4
77707040,10201,1369,4
77730976,11236,3481,4
77754896,841,0,4
77773616,2116,16260,4
77797524,4225,0,4
77817308,16,29929,4
77839132,1156,3136,4
77862016,5329,64,4
77882792,10404,0,4
77903604,7744,0,4
77923372,8993,4356,4
77946264,14161,16384,4
77971224,13456,7569,4
77995152,9604,1028,4
78018012,12996,324,4
78040888,196,7056,4
78062748,16,0,4
78080424,3721,17924,4
78104352,2916,0,4
78124100,0,0,4
78140736,13425,784,4
78163620,25600,30625,4
78188576,0,1,4
78205204,0,13456,4
78226028,17689,676,4
78248876,28561,7056,4
78272808,1764,13225,4
78296724,0,20736,4
78317528,0,0,4
78334184,19600,49,4
78356028,25065,5184,4
78379924,20449,81,4
78401780,1,2025,4
78421520,0,841,4
78440252,0,6561,4
78460004,24649,2500,4
78483916,0,25600,4
78504752,22080,8281,4
78528656,24025,441,4
78551532,7225,2601,4
78574424,0,25281,4
78595224,0,7921,4
78614976,1225,20736,4
78638880,400,25600,4
78661776,9,4900,4
78681540,900,100,4
78702348,144,30625,4
78725232,100,9801,4
78747056,27556,64,4
78768884,28561,5625,4
78792840,7396,196,4
78814644,784,23409,4
78837524,1849,17161,4
78861456,6561,4096,4
78884332,0,24025,4
78905140,0,17689,4
78925944,11025,36,4
78947768,11025,121,4
78970652,256,4,4
78989380,289,529,4
79010188,361,121,4
79030988,4,1,4
79047600,324,1600,4
79069460,9,121,4
79088180,16,169,4
79107940,144,25,4
79127700,1,36,4
79145392,2916,9,4
79165152,3600,144,4
79186992,4,256,4
79205712,64,100,4
79225464,1,9,4
79242112,0,13689,4
79262896,18564,0,4
79283692,324,3721,4
79305536,6889,1024,4
79328428,64,289,4
79348168,196,289,4
79368964,400,196,4
79389784,25,25,4
79408512,144,225,4
79429300,144,16,4
79449056,9,81,4
79466744,121,81,4
79486500,9,4,4
79503148,11025,3600,4
79527044,0,12321,4
79547848,5329,3844,4
79570752,529,400,4
79591532,16,24336,4
79613376,0,22201,4
79634172,0,361,4
79652908,10000,5929,4
79676812,0,14161,4
79697612,6241,3600,4
79720520,961,289,4
79741320,256,9801,4
79763144,24336,81,4
79784964,21025,13225,4
79809940,1024,64,4
79830728,100,4624,4
79852588,0,5476,4
79872352,0,0,4
79888952,0,23409,4
79909756,26244,0,4
79930568,1936,3844,4
79953460,0,4761,4
79973228,27225,17424,4
79998188,1156,81,4
80018980,169,144,4
80039788,225,36,4
80059544,9,144,1
80078256,256,225,1
80099048,64,0,1
80116744,49,121,1
80136500,121,25,1
80156264,0,36,1
80173936,81,64,1
80192684,16,1764,1
80213460,100,7569,1
80235304,100,841,1
80256104,225,25,1
80275876,25,1,1
80293552,4,6724,1
80313288,81,21904,1
80335132,900,3844,1
80356984,729,9,1
80375692,0,25,1
80393384,1,4,1
80410032,625,32761,1
80432892,2116,12305,1
80456808,1225,3600,1
80479704,2304,15876,1
80503612,0,2704,1
80523364,23716,23409,1
80548340,4096,1,1
80568092,49,1681,1
80588904,0,1296,1
80608664,21028,4761,1
80632588,3617,23268,1
80656480,21025,0,1
80677296,5929,25,1
80698104,121,0,1
80716824,36,144,1
80736576,121,81,1
80756336,16,0,1
80774024,9,25,1
80791708,16,4,1
80809364,0,25281,1
80830176,11057,0,1
80850992,14884,2500,1
80874892,400,7744,1
80896728,36,5476,1
80917548,2025,196,1
80939396,100,9801,1
80961220,0,576,1
80979952,0,15625,1
81000744,0,11449,1
81021532,13225,19321,1
81046476,32761,14400,1
81071448,20313,0,1
81092264,25600,11193,1
81117216,64,2601,1
81138024,9,784,1
81156740,289,1,1
81175452,1,9,1
81192096,49,36,1
81210820,3600,8100,1
81233680,11881,32041,1
81258680,576,0,1
81277364,2025,0,1
81297124,2916,9025,1
81320028,24964,21904,1
81344968,400,4096,1
81366804,13225,7225,1
81390748,0,0,1
81407364,0,0,1
81424016,7744,0,1
81443764,3364,484,1
81465620,484,81,1
81485372,289,324,1
81506172,225,25,1
81525952,36,196,1
81545696,256,169,1
81566504,16,16,1
81585220,121,144,1
81606016,100,5929,1
81627868,14884,25,1
81649720,3969,31329,1
81673608,2116,19728,1
81697520,1296,31684,1
81721468,15625,529,1
81744336,10609,19321,1
81769280,5329,0,1
81789052,15376,0,1
81809848,11449,0,1
81830668,20736,1156,1
81854560,4489,0,1
81874328,49,0,1
81892016,1764,400,1
81913868,81,13225,1
81935696,361,25281,1
81958584,2116,9604,1
81981472,169,1521,1
82003324,16,1521,1
82024108,25,2209,1
82044904,49,64,1
82063640,4,25,1
82081324,1,4,1
82097940,225,17161,1
82120820,18496,8464,1
82144720,0,0,1
82161352,29241,25281,1
82186340,17161,4356,1
82210260,6724,1849,1
82233120,15129,13225,1
82258100,0,0,1
82274720,0,0,1
82291384,6889,0,1
82311108,10089,121,1
82334028,0,5329,1
82353776,31684,3844,1
82377680,0,21904,1
82398504,30976,12321,1
82423464,0,121,1
82442160,0,576,1
82460908,0,7225,1
82480656,8464,256,1
82502496,576,324,1
82523300,144,36,1
82543064,4900,576,1
82564904,6400,4,1
82584656,11193,441,1
82607540,16833,30976,1
82632480,4096,2601,1
82655388,6889,11236,1
82679316,0,26896,1
82700096,22201,21025,1
82725056,19044,784,1
82747944,144,20449,1
82770812,1,8649,1
82790592,2025,4761,1
82813456,36,4225,1
82834268,441,3364,1
82856120,400,5476,1
82877936,11025,1521,1
82901852,4225,8649,1
82924724,2704,7921,1
82947616,16641,6400,1
82971524,25,6561,1
82992324,20449,5476,1
83016264,400,5041,1
83038096,8649,49,1
83058904,8100,2209,1
83081780,900,36,1
83101540,4900,400,1
83123384,3249,144,1
83145228,3136,12321,1
83169136,15376,1521,1
83193060,12321,24964,1
83218012,32761,0,1
83238808,7569,23409,1
83262744,15876,1225,1
83286652,196,13689,1
83309532,1521,5625,1
83332412,2601,49,1
83353224,5184,961,1
83375052,3364,8464,1
83397936,8100,1024,1
83420800,11236,2809,1
83444728,15376,17424,1
83469704,64,1764,1
83490500,3136,6400,1
83513384,144,1089,1
83535236,15625,10816,1
83560184,16,841,1
83579944,3600,14884,1
83603868,1521,1089,1
83626724,7225,11881,1
83650660,4,6724,1
83670432,8649,2304,1
83693316,21609,100,1
83716176,11025,12769,1
83741144,25,1024,1
83761932,2116,7396,1
83784824,7744,4624,1
83807700,2500,16,1
83828504,169,3844,1
83850320,13924,1296,1
83874264,9,26244,1
83895064,841,6241,1
83916916,121,64,1
83936676,3136,676,1
83958516,81,2704,1
83979324,2116,1849,1
84002200,625,529,1
84022984,21316,576,1
84045868,1600,4900,1
84068732,18769,7921,1
84092672,1,289,1
84111376,8100,121,1
84133200,13689,2116,1
84157148,1,0,1
84173776,15129,2064,1
84197700,3721,0,1
84217468,1296,19881,1
84241380,1521,676,1
84263224,1024,5041,1
84286104,3025,5776,1
84308972,1369,12100,1
84332896,1936,3844,1
84355764,14161,15129,1
84380736,21316,29929,1
84405696,1369,8281,1
84428576,900,4900,1
84450444,676,49,1
84470168,13456,144,1
84493064,10609,11881,1
84518032,27556,900,1
84540908,25,1444,1
84561704,361,1024,1
84583544,14400,1764,1
84607452,5329,144,1
84629308,16,289,1
84649064,11025,4096,1
84672976,5929,1600,1
84695860,5625,121,1
84717716,529,361,1
84738504,2916,100,1
84760340,2601,1156,1
84783228,17161,1369,1
84807132,5184,1296,1
84830012,841,841,1
84850820,8649,10609,1
84874740,576,1444,1
84896576,2304,8100,1
84919460,1681,1849,1
84942336,400,8836,1
84964176,3136,841,1
84986036,196,4225,1
85007864,10000,100,1
85030744,784,1156,1
85052592,0,4096,1
85072344,2704,1369,1
85095220,4489,225,1
85117072,1521,256,1
85138908,49,1089,1
85159700,256,2500,1
85181544,8100,400,1
85203368,10609,36,1
85225212,9409,144,1
85247064,7056,81,1
85267856,2704,0,1
85287616,144,1369,1
85309476,5041,400,1
85331300,1225,441,1
85353132,144,2209,1
85374992,196,4096,1
85396824,324,36,1
85416580,625,2025,1
85438428,1849,5041,1
85461320,625,1089,1
85483144,1024,2704,1
85506012,625,3136,1
85527876,144,1444,1
85549704,484,361,1
85570500,49,3025,1
85591320,900,1024,1
85613148,1156,1444,1
85636020,529,64,1
85655784,676,4900,1
85677616,361,81,1
85697388,81,49,1
85716108,1024,256,1
85737956,576,81,1
85757708,4,1849,1
85777476,784,5476,1
85799308,2304,1296,1
85822176,2401,12321,1
85846104,400,4761,1
85867948,4761,324,1
85889784,9,7056,1
85909536,1369,7225,1
85932400,7921,24336,1
85956344,5929,8281,1
85979224,576,2916,1
86001052,2704,1521,1
86023932,3600,25,1
86044748,2500,1764,1
86067632,144,256,1
86088416,1089,3025,1
86111304,3364,2704,1
86134180,324,2116,1
86156020,1444,225,1
86177876,225,100,1
86198668,49,10609,1
86220500,4356,8649,1
86243384,8281,3481,1
86266268,961,729,1
86287064,196,2809,1
86308900,7569,36,1
86329704,25921,25,1
86351528,10201,4624,1
86375476,144,256,1
86396272,1024,5776,1
86419136,400,16,1
86438888,169,121,1
86459712,2209,9,1
86479456,5184,25,1
86500260,1600,2704,1
86523148,144,5929,1
86544992,49,1936,1
86565784,144,225,1
86586588,1296,1089,1
86609460,1764,3721,1
86632332,64,0,1
86650024,9,8100,1
86669788,1444,1156,1
86692656,3249,0,1
86712424,256,784,1
86733220,144,484,1
86754028,64,25,1
86772744,1024,0,1
86792508,49,196,1
86812264,0,4,1
86828900,100,4096,1
86850752,841,24336,1
86873640,81,6724,1
86894424,784,4,1
86913148,169,36,1
86932908,196,4,1
86951620,4,324,1
86970332,4,289,1
86989068,16,2209,1
87009856,256,4096,1
87031704,0,484,1
87050436,81,4,1
87068100,144,3481,1
87089944,576,8836,1
87111792,625,1521,1
87133616,576,529,1
87154428,1089,529,1
87176264,1296,81,1
87197064,25,16,1
87215784,1369,64,1
87236580,16,16,1
87255312,0,144,1
87274020,1521,225,1
87295860,1024,196,1
87317696,144,81,1
87337484,484,1,1
87356172,9216,676,1
87378024,1936,3136,1
87400896,289,324,1
87421692,289,1089,1
87443548,196,529,1
87464352,169,9,1
87483056,324,484,1
87503852,16,25,1
87522580,225,169,1
87543388,256,900,1
87564188,81,25,1
87582904,121,49,1
87602656,0,64,1
87620348,1,100,1
87639072,9,196,1
87657804,961,25,1
87677536,1024,961,1
87699368,0,36,1
87717068,16,4225,1
87737868,169,4761,1
87759712,1,49,1
87777384,36,2116,1
87798180,144,361,1
87818988,169,64,1
87838736,121,16,1
87858500,16,961,1
87878248,121,529,1
87899048,144,64,1
87918824,361,1089,1
87940668,324,6241,1
87962504,25,1444,1
87983304,169,225,1
88004104,289,576,1
88024896,841,625,1
88045708,1089,9,1
88065456,1849,0,1
88085228,49,16,1
88103948,676,121,1
88124756,169,100,1
88145556,36,4,1
88163220,196,576,1
88184012,36,256,1
88203796,225,64,1
88223540,169,25,1
88243300,4,49,1
88260980,49,484,1
88280736,81,36,1
88299464,25,36,1
88318200,0,1,1
88334820,1024,576,1
88356660,576,2025,1
88378516,289,81,1
88398268,81,169,1
88418032,121,1,1
88436756,25,4,1
88454440,16,16,1
88473148,441,484,1
88493944,121,729,1
88514756,144,784,1
88535556,81,1444,1
88556360,144,16,1
88576132,361,36,1
88595880,4,81,1
88613552,4,196,1
88632268,400,9,1
88651008,25,9,1
88668660,25,196,1
88688432,9,144,1
88707152,0,81,1
88724832,0,729,1
88743552,64,16,1
88762260,16,144,1
88782016,25,196,1
88801776,16,36,1
88820504,49,289,1
88840276,9,1,1
88856916,81,64,1
88875644,1,1,1
88892280,225,256,1
88913088,441,9,1
88931780,144,64,1
88951544,81,1,1
88969236,49,49,1
88987960,169,9,1
89006668,4,25,1
89024364,324,529,1
89045152,324,2116,1
89067004,1,100,1
89085716,9,144,1
89104444,4,16,1
89122116,16,169,1
89141868,81,121,1
89161608,400,289,1
89182428,100,1,1
89201140,16,81,1
89219868,100,289,1
89240664,49,144,1
89260432,0,0,1
89277072,100,25,1
89296828,0,9,1
89313468,169,81,1
89333220,961,81,1
89352992,169,4,1
89371728,225,16,1
89391484,289,9,1
89410192,256,49,1
89429940,256,144,1
89450756,9,1,1
89467388,1,81,1
89485076,100,4,1
89503796,144,9,1
89522516,400,169,1
89543304,676,256,1
89564108,196,169,1
89584916,0,1,1
89601552,16,676,1
89621308,256,169,1
89642124,256,4,1
89660832,4,196,1
89679548,144,625,1
89700340,100,81,1
89720112,324,64,1
89739872,144,196,1
89760676,1,16,1
89778352,0,36,1
89796032,4,25,1
89813708,100,1,1
89832428,16,0,1
89850120,196,25,1
89869876,169,4,1
89888592,100,36,1
89908360,0,16,1
89926036,0,4,1
89942676,121,256,1
89963460,121,144,1
89984272,169,64,1
90004032,81,9,1
90021712,4,256,1
90040444,100,1,1
90059156,169,289,7
90079956,100,1,7
90098672,49,36,7
90117400,64,1,7
90135080,64,25,7
90153804,4,9,7
90170436,4,169,7
90189168,1,25,7
90206828,4,9,7
90223476,64,144,7
90243232,25,81,7
90261964,144,324,7
90282756,256,484,7
90303568,196,1,7
90322284,1,169,7
90340996,121,100,7
90361796,1,676,7
90380532,256,441,7
90401320,169,361,7
90422112,4,0,7
90438764,1,9801,7
90458496,36,0,7
90476188,1444,19881,7
90500120,3600,961,7
90521952,1444,225,7
90543792,729,64,7
90563548,361,16,7
90583328,64,1,7
90601004,256,324,7
90621800,0,49,7
90639476,36,441,7
90659236,1,784,7
90677940,169,1,7
90696660,4,36,7
90714360,81,81,7
90733080,49,4,7
90750740,64,81,7
90769464,144,36,7
90789244,0,169,7
90807956,0,49,7
90825632,16,0,7
90843312,25,4,7
90860984,36,729,7
90880756,0,361,7
90899488,196,169,7
90920280,169,196,7
90941068,0,81,7
90958752,64,676,7
90978524,100,441,7
90999328,4,36,7
91016984,4,196,7
91035724,16,144,7
91055480,36,0,7
91073160,36,196,7
91092904,1,64,7
91110596,196,49,7
91130356,81,121,7
91150100,9,100,7
91168820,25,400,7
91188596,49,1849,7
91209392,0,196,7
91228100,16,225,7
91247884,25,9,7
91265564,36,4,7
91283232,1,36,7
91300912,16,16,7
91319640,9,361,7
91338364,9,9,7
91354988,0,324,7
91373712,25,81,7
91392416,196,144,7
91413228,36,4,7
91430904,0,0,7
91447552,25,576,7
91467320,9,729,7
91486032,4,324,7
91504756,1,324,7
91523480,25,25,7
91542192,361,4,7
91560900,784,729,7
91581700,225,1600,7
91603556,289,196,7
91624360,441,1,7
91643084,36,0,7
91660752,25,64,7
91679480,361,289,7
91700280,9,169,7
91718996,16,225,7
91738756,144,9,7
91757468,144,36,7
91777240,289,900,7
91798036,1296,0,7
91817784,2209,625,7
91839624,1225,0,7
91859392,225,2401,7
91881224,361,729,7
91902028,1444,144,7
91923868,2209,576,7
91945692,1089,4,7
91965492,49,729,7
91985232,25,441,7
92004996,729,484,7
92025788,9,1,7
92042432,361,484,7
92063216,900,49,7
92082984,6400,400,7
92104832,1225,0,7
92124596,256,9,7
92143312,16,49,7
92162016,16,676,7
92181788,81,484,7
92201552,81,36,7
92220276,9,81,7
92237952,529,36,7
92257708,1600,36,7
92278508,484,961,7
92299312,784,144,7
92320120,441,49,7
92339868,225,36,7
92359628,289,169,7
92380432,324,169,7
92401228,1089,0,7
92420992,400,1681,7
92442828,225,2209,7
92464680,196,81,7
92484436,81,361,7
92504200,100,36,7
92523940,0,1936,7
92543700,81,1296,7
92564512,484,361,7
92585320,256,121,7
92606124,441,225,7
92626900,289,676,7
92647704,64,36,7
92666420,100,225,7
92687224,196,256,7
92708020,121,529,7
92728832,529,81,7
92748588,144,4,7
92767324,324,1,7
92786032,169,0,7
92804760,144,144,7
92825552,144,144,7
92846360,4,25,7
92864032,529,64,7
92883796,400,25,7
92903564,0,49,7
92921232,49,196,7
92940996,9,4,7
92957628,144,121,7
92978440,16,36,7
92997168,9,196,7
93015880,16,36,7
93034608,729,16,7
93054364,841,49,7
93074116,9,441,7
93092828,1,0,7
93109476,49,64,7
93128200,1,9,7
93144820,256,121,7
93165644,784,484,7
93186444,64,1,7
93204108,144,169,7
93224912,441,100,7
93245728,49,4,7
93263392,81,100,7
93283160,81,169,7
93302920,25,169,7
93322688,144,121,7
93343476,25,36,7
93362208,1,0,7
93378836,49,64,7
93397548,144,81,7
93417312,25,0,7
93435004,256,784,7
93455784,2116,900,7
93477628,1936,400,7
93499488,289,169,7
93520280,16,25,7
93538980,0,0,7
93555616,1521,196,7
93577476,3025,196,7
93599304,324,0,7
93618032,9,36,7
93635716,169,484,7
93656504,1369,576,7
93678356,576,121,7
93699160,49,16,7
93717884,49,0,7
93735560,9,100,7
93754268,144,121,7
93775072,225,400,7
93795876,3249,49,7
93816672,3481,16,7
93837480,729,100,7
93858276,81,169,7
93878028,0,9,7
93894676,625,100,7
93915484,1089,81,7
93936276,64,81,7
93954988,81,225,7
93974756,81,36,7
93993480,289,64,7
94013248,81,9,7
94030916,144,225,7
94051720,196,16,7
94071464,121,64,7
94091228,4,4,7
94107872,36,64,7
94126588,25,9,7
94144276,49,36,7
94162996,484,4,7
94181724,81,1,7
94199396,0,9,7
94216032,16,49,7
94234764,144,441,7
94255552,361,784,7
94276360,81,16,7
94295080,25,121,7
94314836,121,36,7
94334600,16,169,7
94354348,0,144,7
94373088,784,1,7
94391792,961,64,7
94411552,36,100,7
94431320,25,0,7
94448992,64,64,7
94467716,25,196,7
94487472,16,81,7
94506200,16,1,7
94523864,4,36,7
94541544,121,25,7
94561320,100,1,7
94580036,25,289,7
94599788,36,25,7
94618512,16,81,7
94637240,144,9,7
94655960,324,16,7
94675708,121,16,7
94695480,4,25,7
94713160,1,441,7
94731880,64,49,7
94750588,0,1,7
94767240,144,121,7
94788028,324,1,7
94806756,0,25,7
94824420,144,36,7
94844200,49,1,7
94861868,0,121,7
94880592,4,36,7
94898280,0,4,7
94914924,225,0,7
94933636,361,361,7
94954424,36,289,7
94974204,16,81,7
94992920,81,25,7
95011632,25,25,7
95030364,9,100,7
95049076,1,25,7
95066756,4,36,7
95084428,16,100,7
95104200,0,1,7
95120832,256,169,7
95141628,676,324,7
95162444,9,0,7
95179076,625,64,7
95198832,169,0,7
95217560,64,25,7
95236288,144,1,7
95254996,9,0,7
95271636,676,196,7
95292436,1681,36,7
95313236,676,100,7
95334036,100,0,7
95352756,4,36,7
95370444,1,144,7
95389160,4,169,7
95407884,4,4,7
95424508,81,0,7
95442192,784,100,7
95462992,729,4,7
95481712,81,4,7
95499408,4,49,7
95517084,16,49,7
95535792,0,36,7
95553472,36,36,7
95572208,0,169,7
95590908,729,4,7
95609636,169,4,7
95628356,9,1,7
95644996,9,64,7
95662668,25,9,7
95680340,0,100,7
95699084,0,121,7
95717800,1,9,7
95734432,9,1,7
95751068,4,484,7
95769788,1225,100,7
95791628,441,4,7
95810364,400,196,7
95831152,0,324,7
95849872,625,0,7
95868592,625,64,7
95888356,169,25,7
95908128,1,25,7
95925796,49,36,7
95944504,289,0,7
95963236,676,16,7
95983004,441,225,7
96003796,16,25,7
96022504,4,36,7
96040196,9,16,7
96057876,9,64,7
96075552,36,121,7
96095316,0,4,7
96111968,121,4,7
96130672,81,100,7
96150428,36,100,7
96170208,64,9,7
96187880,100,100,7
96208664,81,256,7
96228428,441,25,7
96248192,441,81,7
96267960,16,36,7
96286664,0,1,7
96303316,0,25,7
96320988,324,121,7
96341788,1024,36,7
96362596,225,9,7
96381320,1,1,7
96397948,0,121,7
96416668,1,25,7
96434364,1,1,7
96450992,1,0,7
96467652,64,1024,7
96488424,16,1225,7
96509244,64,4,7
96526912,36,196,7
96546664,225,144,7
96567472,1,64,7
96585148,64,324,7
96604916,64,144,7
96624684,81,9,7
96642364,4,36,7
96660032,16,121,7
96679800,49,289,7
96699556,100,225,7
96720356,4,1,7
96736988,121,25,7
96756756,36,0,7
96774440,25,49,7
96793152,36,0,7
96810836,36,0,7
96828516,81,256,7
96848284,1,1,7
96864904,400,81,7
96884660,1,36,7
96902348,289,0,7
96921064,0,36,7
96938748,1764,81,7
96959564,1156,4,7
96979324,400,9,7
96998028,1600,100,7
97019872,121,49,7
97039636,169,0,7
97058352,225,1,7
97077068,256,49,7
97096836,289,144,7
97117628,16,16,7
97136352,0,16,7
97154032,1,16,7
97171728,1,1,7
97188352,169,324,7
97209152,225,225,7
97229968,121,4,7
97248684,0,25,7
97266368,4,9,7
97282984,81,144,7
97302752,25,0,7
97320424,36,16,7
97339152,0,4,7
97355792,16,289,7
97375556,1,49,7
97393228,0,25,7
97410916,0,4,7
97427564,324,100,7
97448364,289,16,7
97468120,1,9,7
97484748,81,9,7
97502444,4,1,7
97519072,81,0,7
97536760,0,64,7
97554428,9,36,7
97572124,100,100,7
97592916,36,25,7
97611632,9,64,7
97629324,16,49,7
97648036,16,36,7
97666752,4,9,7
97683376,16,49,7
97702124,9,81,7
97719792,0,49,7
97737476,144,81,7
97757252,49,36,7
97775960,4,25,7
97793628,0,49,7
97811316,16,144,7
97831084,4,1,7
97847716,324,25,7
97867484,196,1,7
97886200,4,1,7
97902836,49,4,7
97920520,9,16,7
97938204,16,1,7
97955888,1,100,7
97974596,196,9,7
97993316,169,4,7
98012040,64,4,7
98029716,121,1,7
98048440,144,0,7
98067168,9,36,7
98084828,121,64,7
98104604,400,4,7
98123316,9,196,7
98142032,36,1,7
98159712,49,36,7
98178436,36,4,7
98196112,16,4,7
98213792,49,64,7
98232520,1,0,7
98249144,0,36,7
98266836,144,100,7
98287644,256,25,7
98307404,225,1,7
98326120,1,9,7
98342756,100,0,7
98361484,1,64,7
98379160,36,64,7
98397872,0,36,7
98415544,256,1,7
98434276,49,121,7
98454044,9,49,7
98471716,16,9,7
98489400,1,1,7
98506044,400,225,7
98526836,484,121,7
98547620,100,16,7
98567400,9,25,7
98585076,81,1,7
98602752,81,121,7
98622516,1,196,7
98641236,81,1,7
98658904,16,49,7
98677632,36,49,7
98696352,25,1,7
98714028,121,0,7
98732760,36,16,7
98751472,9,1,7
98768120,0,36,7
98785796,0,121,7
98804508,49,9,7
98822204,4,36,7
98839888,25,0,7
98857564,0,4,7
98874188,16,121,7
98893960,4,16,7
98911632,0,0,7
98928268,49,4,7
98945948,4,49,7
98963648,0,16,7
98981320,100,4,7
99000040,324,1,7
99018744,289,9,7
99037480,25,0,7
99055148,9,1,7
99071792,484,361,7
99092604,25,576,7
99112364,4,1,7
99128996,1,9,7
99145628,225,49,7
99165392,144,9,7
99184112,49,36,7
99202836,100,1,7
99221552,25,25,7
99240272,81,64,7
99258988,9,64,7
99276680,25,9,7
99294364,4,1,7
99310996,0,100,7
99329720,0,49,7
99347388,81,1,7
99365084,400,36,7
99384844,49,100,7
99404592,4,25,7
99422288,196,9,7
99440996,169,9,7
99459716,9,25,7
99477396,1,36,7
99495076,81,9,7
99512756,49,81,7
99531468,64,9,7
99549136,9,0,7
99565804,9,36,7
99583476,64,25,7
99602200,1,25,7
99619880,144,25,7
99639636,169,49,7
99659396,36,1,7
99677076,16,36,7
99695796,0,121,7
99714516,25,0,7
99732192,121,16,7
99751952,36,100,7
99771728,1,324,7
99790440,25,289,7
99810192,289,100,7
99831000,9,1,7
99847636,64,4,7
99865320,36,9,7
99882988,49,100,7
99902764,25,4,7
99920436,16,0,7
99938112,25,4,7
99955792,9,4,7
99972436,64,121,7
99992188,169,100,7
100012988,121,9,7
100032760,25,81,7
100052516,0,169,7
100072264,169,144,6
100094124,4,1,6
100111792,784,36,6
100132596,729,1,6
100152356,729,16,6
100173160,1156,144,6
100196032,400,121,6
100217884,9,0,6
100235568,121,1,6
100255308,81,1,6
100274032,64,49,6
100293796,169,16,6
100314592,36,1,6
100333312,36,9,6
100352044,196,1,6
100371796,256,1,6
100391548,49,9,6
100410272,4,4,6
100427952,16,0,6
100446668,81,4,6
100465400,36,0,6
100484128,4,4,6
100501804,289,49,6
100522596,361,4,6
100542348,64,1,6
100561088,25,9,6
100579796,196,1,6
100599548,49,1,6
100618276,0,1,6
100635960,4,16,6
100654680,16,1,6
100673400,0,9,6
100691084,81,1,6
100709792,529,16,6
100730588,324,36,6
100751396,441,64,6
100772200,361,1,6
100791948,100,100,6
100813788,25,36,6
100833552,121,4,6
100853312,36,1,6
100872028,625,4,6
100891796,361,9,6
100911556,25,49,6
100931316,9,16,6
100950044,196,36,6
100970840,36,0,6
100989548,4,9,6
101007228,64,0,6
101025964,64,9,6
101044668,49,9,6
101063408,9,4,6
101081056,1225,0,6
101101868,361,64,6
101122664,4096,4,6
101143456,5625,576,6
101166352,1521,256,6
101189236,169,0,6
101208988,1,0,6
101226684,16,1,6
101245396,1,0,6
101263080,121,0,6
101282836,196,36,6
101303644,16,64,6
101323408,1,1,6
101341076,361,49,6
101361872,529,121,6
101383712,25,9,6
101402436,25,9,6
101421168,100,49,6
101441956,49,49,6
101461704,4,0,6
101479392,16,121,6
101500196,289,100,6
101522040,289,25,6
101542828,49,25,6
101562592,81,0,6
101581316,16,36,6
101601072,169,4,6
101620832,4489,4,6
101641612,1936,324,6
101664492,11881,0,6
101686340,2916,361,6
101709236,9216,169,6
101732084,0,625,6
101751868,2153,12544,6
101776804,25744,9604,6
101801784,2884,4900,6
101825696,0,0,6
101843380,784,25921,6
101867304,20449,3364,6
101892256,32761,30976,6
101918224,5041,4624,6
101942160,28561,12769,6
101968180,784,169,6
101990008,121,9409,6
102012900,256,7056,6
102035784,81,784,6
102056584,10816,36,6
102079428,15376,5041,6
102104428,256,18769,6
102128328,0,576,6
102148124,121,2025,6
102170976,0,17956,6
102192828,0,9025,6
102213604,0,31329,6
102235448,4489,9409,6
102259368,25,3721,6
102281192,289,10816,6
102305136,7396,289,6
102328016,7569,2116,6
102351952,6561,4,6
102372716,10000,0,6
102394544,625,26244,6
102418460,15625,64,6
102441364,29241,24025,6
102467376,10201,49,6
102490232,13225,8993,6
102515216,1156,0,6
102535996,20164,29584,6
102562020,3600,32041,6
102586960,121,81,6
102607780,225,1369,6
102630660,576,256,6
102652472,169,1028,6
102675348,8649,23716,6
102700324,25,81,6
102720088,3969,0,6
102740880,25,31684,6
102763788,11881,0,6
102785624,8464,17424,6
102810568,1156,0,6
102831388,4624,28100,6
102856312,22500,16260,6
102882340,0,0,6
102900000,27889,0,6
102921856,0,0,6
102939516,0,9540,6
102960340,24964,0,6
102982176,441,729,6
103004016,7744,3025,6
103027944,10000,64,6
103050800,12321,28900,6
103076780,4489,5625,6
103100740,729,30276,6
103124656,5776,3844,6
103148596,3600,484,6
103171456,0,0,6
103189140,225,0,6
103208880,21316,1521,6
103233856,3721,15120,6
103258800,0,0,6
103276488,1028,1156,6
103300424,21489,1156,6
103325356,0,256,6
103345120,5625,2304,6
103369052,144,9216,6
103391920,64,25,6
103411684,7921,289,6
103434556,144,729,6
103456388,36,4356,6
103478240,10000,20736,6
103504260,3844,1849,6
103528184,22801,0,6
103550012,7569,11664,6
103574940,6889,4225,6
103598900,961,26244,6
103622828,625,225,6
103644668,1,2809,6
103665472,196,1,6
103685232,1936,625,6
103708104,100,784,6
103729932,15625,21904,6
103755924,1,9025,6
103776716,10201,625,6
103800656,1024,0,6
103821460,7396,17956,6
103846428,12321,9,6
103868264,2401,1600,6
103892152,36,0,6
103910892,36,14161,6
103933760,12321,1225,6
103958740,13225,0,6
103980588,16,19321,6
104003460,1156,196,6
104026352,400,841,6
104048192,2916,6084,6
104072084,484,3136,6
104094976,1681,225,6
104117872,49,20313,6
104140724,324,0,6
104160516,2401,0,6
104181300,8464,6288,6
104205204,7744,7569,6
104229128,5929,11236,6
104254116,36,13225,6
104276972,900,1296,6
104299868,2209,2704,6
104323772,23716,3136,6
104348712,30625,0,6
104370552,2116,15376,6
104395528,1936,441,6
104418424,1521,30276,6
104443376,2025,169,6
104466256,11025,2209,6
104491208,225,0,6
104510976,64,4225,6
104532800,23716,1024,6
104557764,4096,8100,6
104581692,25,13225,6
104604576,5329,11025,6
104629528,2401,0,6
104650332,100,21609,6
104674232,3249,1089,6
104698180,1369,0,6
104718980,196,14161,6
104742904,5625,9,6
104763704,1156,576,6
104786580,16,0,6
104805292,10404,8448,6
104830244,256,0,6
104849984,4900,0,6
104870784,1764,225,6
104893696,2116,324,6
104916552,1225,5625,6
104940484,1521,14641,6
104965464,324,12769,6
104989356,1,0,6
105007068,225,22673,6
105030956,8649,28100,6
105055920,6561,16129,6
105080920,0,1028,6
105101704,2601,22500,6
105126656,10404,1936,6
105151612,5929,0,6
105172404,324,18496,6
105196336,729,22201,6
105220264,289,484,6
105242096,5625,1444,6
105266028,361,2209,6
105288872,289,22500,6
105312804,3600,10609,6
105337780,36,0,6
105356496,1024,0,6
105377300,12544,21316,6
105403296,144,5776,6
105426168,36,1296,6
105447984,11881,29584,6
105473996,4096,19600,6
105499008,9,0,6
105516668,3364,32041,6
105541612,0,196,6
105561380,5929,0,6
105582188,11881,36,6
105605040,11025,17424,6
105631036,9801,1369,6
105654976,6889,28561,6
105679936,25,10201,6
105702820,1156,6400,6
105726728,12321,27556,6
105752708,29584,7569,6
105777696,12321,0,6
105799528,4900,25600,6
105824504,49,784,6
105845304,9801,100,6
105868176,225,32400,6
105892072,5041,5776,6
105916020,484,19600,6
105939932,1849,361,6
105962824,13456,961,6
105986724,1024,29584,6
106011680,3969,2704,6
106035608,22500,11449,6
106061616,121,2500,6
106084500,16,5184,6
106106328,30976,13225,6
106132312,3364,2025,6
106156248,4225,24025,6
106181212,6400,3844,6
106205112,3481,23716,6
106230084,4356,4356,6
106254008,2916,3481,6
106277940,9216,14884,6
106302896,8281,0,6
106323692,25281,21025,6
106349684,4356,0,6
106370476,2916,11881,6
106395452,6241,17689,6
106420420,1225,1681,6
106444328,11449,12544,6
106470312,900,289,6
106492160,25,400,6
106512976,64,1296,6
106534800,2025,1444,6
106558740,676,0,6
106578504,81,8649,6
106600344,625,4225,6
106623236,6084,3136,6
106647132,289,0,6
106666888,529,0,6
106686652,2304,2916,6
106710564,1369,1521,6
106734476,7056,21025,6
106759460,2209,81,6
106781296,2500,3364,6
106805192,1369,21025,6
106830160,1369,400,6
106853056,529,64,6
106873840,8464,15625,6
106898812,6241,3025,6
106922736,3600,11664,6
106947696,841,5329,6
106970580,1024,36,6
106992424,7056,729,6
107015300,25,24025,6
107038188,225,121,6
107060028,4900,3249,6
107083944,441,14641,6
107107856,169,5041,6
107130724,3364,6400,6
107154656,1156,0,6
107175456,2116,6084,6
107199388,5929,961,6
107222264,1156,14400,6
107247220,2025,1849,6
107271132,6724,15376,6
107296096,10816,16384,6
107322108,4096,8281,6
107346008,625,24336,6
107369912,6889,3844,6
107393856,8836,0,6
107414660,1849,29929,6
107439624,5041,11025,6
107464568,0,0,6
107482248,4096,21904,6
107507212,22201,5476,6
107532160,4489,3721,6
107556112,0,24464,6
107577940,1521,13225,6
107602880,9604,0,6
107623696,0,0,6
107641380,11236,5329,6
107666320,4,13456,6
107688176,7396,11236,6
107713128,4225,25600,6
107738092,5184,2601,6
107762016,2916,0,6
107782808,5041,4356,6
107806736,7569,784,6
107829612,484,784,6
107851460,324,49,6
107872244,784,7056,6
107895148,5329,13689,6
107920104,529,18225,6
107944028,16900,13689,6
107970012,3136,0,6
107990804,6724,3249,6
108014748,15129,0,6
108036584,3136,0,6
108057376,16384,25,6
108080272,400,36,6
108101068,289,1849,6
108123932,1936,6241,6
108147844,4761,625,6
108170724,10404,12996,6
108196748,6400,0,6
108217544,2601,22801,6
108242492,4489,21316,6
108267428,2500,1936,6
108291380,7056,9409,6
108315304,5929,9025,6
108339224,529,10816,6
108363128,2401,26244,6
108388076,8649,9604,6
108412020,8281,12996,6
108436972,5625,676,6
108459856,6889,8100,6
108483768,289,18496,6
108507672,14884,8464,6
108532656,7396,11236,6
108557616,7569,225,6
108580500,324,3600,6
108603344,24336,0,6
108625200,1521,30976,6
108650160,1936,2601,6
108674104,289,0,6
108693868,6561,11664,6
108718824,0,36,6
108737552,1600,4,6
108758360,7396,4624,6
108782244,256,25600,6
108806196,225,2601,6
108829048,324,12769,6
108852976,1600,32041,6
108877936,2916,13225,6
108902880,6724,0,6
108923688,7056,5776,6
108947592,0,3364,6
108968404,1764,961,6
108991300,729,3025,6
109014180,2116,14884,6
109039144,2916,7744,6
109063048,3844,29241,6
109088012,10609,6241,6
109112992,4,24649,6
109134796,676,29929,6
109158740,841,9801,6
109181612,361,29584,6
109205536,1225,7225,6
109229460,19600,400,6
109253364,3136,0,6
109274184,7056,9409,6
109298096,24025,121,6
109322000,1369,15625,6
109346976,9,625,6
109366724,6889,2209,6
109390656,256,30976,6
109414580,361,576,6
109436424,7744,0,6
109457228,1,4489,6
109478032,4761,361,6
109500900,1444,24336,6
109525852,1156,8100,6
109549776,324,7225,6
109572648,400,9801,6
109595536,361,8464,6
109618432,2209,0,6
109639216,676,3136,6
109662084,841,6084,6
109684988,3136,3364,6
109708900,16,729,6
109729676,100,1156,6
109752588,1681,0,6
109773392,400,7921,6
109796264,324,1024,6
109819148,900,12996,6
109843040,729,6241,6
109865940,144,24336,6
109889868,1600,1225,6
109913776,256,4,6
109933528,2025,1369,6
109957468,2209,1681,6
109981364,8100,0,6
110002168,3721,25600,6
110027128,529,5776,6
110050012,324,24964,6
110073936,169,2916,3
110096820,225,12321,3
110120740,3364,10609,3
110145692,3481,196,3
110168600,9,8649,3
110189364,2209,1849,3
110213312,4225,18769,3
110238256,49,2601,3
110260100,121,12996,3
110284028,729,36,3
110304832,289,676,3
110326648,2116,81,3
110348508,3249,576,3
110371388,121,17956,3
110395296,36,3969,3
110417144,729,6241,3
110440008,100,2704,3
110462892,9,625,3
110482672,1681,3969,3
110506576,900,9,3
110526340,6561,1,3
110547136,4489,1369,3
110571056,5041,29929,3
110596012,1936,0,3
110616820,3844,25,3
110638656,784,529,3
110660488,3600,10000,3
110685468,1225,256,3
110708340,0,10201,3
110730168,100,12996,3
110754124,9,3969,3
110774908,1521,2209,3
110798812,25,1225,3
110820668,256,625,3
110842496,1296,1089,3
110866396,49,1369,3
110888276,121,8281,3
110911144,729,5184,3
110934032,361,324,3
110955876,841,9604,3
110978740,4,841,3
110998488,0,2025,3
111019296,8100,7225,3
111043220,1156,5476,3
111067144,576,2209,3
111090028,0,26244,3
111111856,100,12100,3
111135796,196,841,3
111157624,100,14161,3
111181528,1024,5625,3
111205460,289,10000,3
111229376,2401,12544,3
111254340,2304,169,3
111277228,100,6889,3
111300096,4096,10404,3
111325032,5329,1681,3
111348988,196,17956,3
111372896,2025,625,3
111395772,2500,1444,3
111419704,1089,10816,3
111444648,361,169,3
111466504,1444,4489,3
111490420,1764,14161,3
111515380,100,8649,3
111538260,5329,3844,3
111562180,1296,729,3
111585040,9409,100,3
111607932,81,7569,3
111629768,324,4900,3
111652656,9409,1296,3
111676584,25,3721,3
111698408,121,6724,3
111721292,5625,1089,3
111745204,121,2304,3
111768096,1600,0,3
111788896,529,2500,3
111811804,1,196,3
111831544,225,1681,3
111854424,625,9,3
111874196,16,484,3
111894980,256,5776,3
111917856,324,10201,3
111941788,1600,28900,3
111966752,2401,11449,3
111991700,2704,0,3
112012512,169,8100,3
112035392,2500,1089,3
112059304,64,7569,3
112081140,25,3844,3
112102992,729,15625,3
112126884,625,21904,3
112150800,196,0,3
112170588,9025,24953,3
112195536,12769,28900,3
112221536,3844,0,3
112242328,169,2916,3
112265196,13225,6889,3
112290176,22500,14641,3
112316164,8281,7569,3
112340108,256,8281,3
112362972,11881,6724,3
112387932,16900,7744,3
112412900,10201,7569,3
112437844,25921,3481,3
112462792,23104,2304,3
112487788,1024,0,3
112508576,6241,24025,3
112533540,16,6561,3
112555384,64,20900,3
112578264,529,19728,3
112602184,6561,10816,3
112627124,18225,2209,3
112652088,17161,22201,3
112678096,0,3249,3
112698896,0,0,3
112716560,0,0,3
112734244,9409,7396,3
112758164,121,17956,3
112782064,21609,0,3
112803924,6400,0,3
112824720,0,625,3
112844488,28224,5776,3
112869452,0,10201,3
112891268,32041,9025,3
112916244,1369,12769,3
112941208,0,0,3
112958876,3633,0,3
112979664,1369,1681,3
113003608,17689,484,3
113027512,3721,2116,3
113051440,2704,0,3
113072248,3969,0,3
113093048,2601,784,3
113115936,31329,1296,3
113140896,0,26244,3
113162740,49,26896,3
113185612,3721,1,3
113206408,64,289,3
113227216,4,196,3
113246968,529,784,3
113268804,0,0,3
113286500,2153,0,3
113307276,0,0,3
113324960,289,144,3
113346808,2500,16,3
113368640,27225,12996,3
113394636,13225,2809,3
113419584,784,0,3
113439364,0,11881,3
113461192,0,4624,3
113482016,36,400,3
113502816,25,100,3
113523612,196,100,3
113545460,2116,4,3
113566252,5625,100,3
113589120,0,0,3
113606812,2153,22416,3
113631772,21489,20548,3
113657740,4900,0,3
113678580,0,21025,3
113700408,0,5625,3
113721216,16,36,3
113740980,169,25,3
113761784,25,81,3
113781540,144,144,3
113803384,49,0,3
113822100,16,64,3
113841848,64,25,3
113861612,1,16,3
113880348,49,25,3
113900100,9,0,3
113917788,9,5776,3
113938580,4,15376,3
113960408,676,2601,3
113983304,841,1,3
114003068,9,16,3
114021784,0,25,3
114040504,49,49,3
114060252,36,4,3
114078988,4,25,3
114097700,361,1,3
114117464,225,23409,3
114141368,2209,13988,3
114166324,784,18496,3
114190232,24649,0,3
114212092,11025,0,3
114233928,3969,16,3
114255772,9216,225,3
114278644,3600,0,3
114299440,8464,0,3
114320252,7744,361,3
114343140,25,36,3
114362904,100,529,3
114384728,625,441,3
114406588,3364,11664,3
114431528,11449,0,3
114453356,15625,18769,3
114479368,0,0,3
114497048,20736,0,3
114518888,4225,64,3
114540748,25,676,3
114561548,400,16,3
114582332,64,324,3
114603132,441,289,3
114624984,36,16,3
114644744,144,256,3
114666588,16129,14161,3
114692576,64,16,3
114712320,14400,9604,3
114737292,0,0,3
114754968,8804,16836,3
114779932,16260,0,3
114801772,6400,0,3
114822580,7056,144,3
114845472,576,0,3
114865216,441,0,3
114884972,3025,8836,3
114908888,0,0,3
114926552,12321,0,3
114948420,4900,0,3
114969216,1,841,3
114988964,676,225,3
115010816,16,100,3
115031620,324,400,3
115053468,169,9,3
115073232,36,144,3
115094008,196,0,3
115113788,0,0,3
115131456,30921,9216,3
115156404,0,0,3
115174100,0,0,3
115191748,2500,0,3
115212580,7225,441,3
115235440,0,0,3
115253132,0,0,3
115270804,8836,0,3
115291612,5476,400,3
115314500,0,289,3
115334264,0,5776,3
115355052,19600,22500,3
115381056,2704,1,3
115401856,3249,3025,3
115425760,0,0,3
115443448,21809,1424,3
115468428,9540,21481,3
115493360,10609,22673,3
115519368,19145,16900,3
115545380,0,7312,3
115566160,12321,29241,3
115592156,6400,289,3
115615064,26896,21025,3
115641048,5625,3844,3
115664992,16641,13425,3
115690960,0,32041,3
115712804,0,3025,3
115733604,25,0,3
115752340,676,21809,3
115776244,17689,27332,3
115802248,6724,0,3
115823052,4624,256,3
115845916,0,0,3
115863628,0,26537,3
115885460,24964,18564,3
115911456,441,10000,3
115935360,8281,0,3
115956144,8100,28224,3
115981128,1369,900,3
116004032,144,28224,3
116027936,400,1444,3
116050808,1369,81,3
116072660,19044,2601,3
116097604,15376,1545,3
116122552,27889,0,3
116144416,8993,513,3
116167300,17153,0,3
116189120,8448,4900,3
116213084,0,7744,3
116233852,0,4096,3
116254648,31808,22080,3
116280620,24464,1028,3
116305600,24025,441,3
116329548,9,12996,3
116351380,9216,11449,3
116376300,0,23716,3
116398180,0,32400,3
116420024,11025,7921,3
116444968,0,19321,3
116466808,22500,2116,3
116491796,23268,1521,3
116516716,1296,26244,3
116541684,3600,900,3
116564580,3364,9540,3
116588476,2916,19600,3
116613440,10816,0,3
116635280,1089,30976,3
116660244,30625,1024,3
116685192,5329,30976,3
116710172,12305,0,3
116732024,625,9025,3
116754888,25,0,3
116773572,0,19600,3
116795448,3108,14400,3
116820396,31329,6241,3
116845384,64,12864,3
116868260,64,18496,3
116891140,11025,4624,3
116916076,4096,7364,3
116940008,484,24025,3
116963924,0,17985,3
116985760,24336,0,3
117007616,8100,4,3
117028408,529,196,3
117050260,361,324,3
117072096,49,19044,3
117094960,0,1296,3
117115764,0,16384,3
117137632,676,256,3
117159464,0,36,3
117178180,25,0,3
117196912,2809,841,3
117219776,11449,196,3
117243676,0,19321,3
117265532,27889,0,3
117287368,2401,16,3
117309224,100,16,3
117330032,0,361,3
117349780,0,4356,3
117370568,19044,4356,3
117395528,28900,0,3
117417368,7056,0,3
117438172,9216,729,3
117461060,529,9,3
117480832,9,1,3
117498496,9,16,3
117517212,9,0,3
117534912,1,9,3
117552580,16,4,3
117571300,0,4,3
117588960,0,0,3
117606644,22801,0,3
117628488,5184,16,3
117650348,0,81,3
117669060,12569,5776,3
117694016,3617,0,3
117714796,24964,0,3
117736652,7921,9,3
117757464,484,121,3
117779296,324,400,3
117801160,81,576,3
117821928,13456,18496,3
117847916,784,15376,3
117871848,28100,11193,3
117897848,21025,0,3
117919692,2809,36,3
117941540,21025,20449,3
117967524,121,10000,3
117991440,0,12864,3
118013292,2916,0,3
118034080,17956,961,3
118058024,25,784,3
118078824,400,81,3
118099616,0,81,3
118118336,196,144,3
118140200,49,169,3
118160996,1296,3249,3
118184876,29584,3600,3
118209856,0,22201,3
118231684,0,0,3
118249372,0,0,3
118267044,7225,31684,3
118291992,3136,0,3
118312804,0,27889,3
118334652,0,7569,3
118355456,144,64,3
118376248,0,100,3
118396028,324,225,3
118417860,100,4,3
118437620,25,81,3
118457384,81,36,3
118477140,0,16,3
118495860,49,36,3
118515620,16,0,3
118534348,16,36,3
118554100,36,16,3
118573856,0,9,3
118591548,25,16,3
118611308,9,0,3
118628984,3600,0,3
118649768,2916,10640,3
118674724,9801,4900,3
118698640,3969,13924,3
118723608,0,0,3
118741300,25281,19728,3
118767276,4624,13924,3
118792248,0,0,3
118809952,13924,513,3
118833860,7744,4624,3
118857792,961,1,3
118877540,1225,9,3
118898340,64,900,3
118919116,289,121,3
118940968,0,0,3
118958644,0,18688,3
118980496,0,5892,3
119001300,324,22673,3
119025200,169,0,3
119044956,256,15376,3
119068892,625,20449,3
119092792,0,169,3
119112564,0,23104,3
119134420,289,25,3
119155232,0,196,3
119174980,289,100,3
119196816,16,16,3
119216580,100,121,3
119238424,49,9,3
119257148,9,64,3
119275868,81,36,3
119295624,4,4,3
119313296,36,49,3
119333064,16,1,3
119351780,4,16,3
119370500,25,9,3
119389216,21904,289,3
119413132,8448,2500,3
119437032,11881,2500,3
119462008,0,0,3
119479712,0,0,3
119497348,18225,0,3
119519220,12769,0,3
119541072,0,28900,3
119562888,324,1681,3
119585756,6400,784,3
119608664,0,24336,3
119630480,16641,13689,3
119656500,1521,4489,3
119680416,0,0,3
119698080,28713,21481,3
119724088,11193,20548,3
119750084,23268,528,3
119774000,3249,0,3
119794820,8464,49,3
119816660,1,289,3
119836420,64,9,3
119855148,49,169,3
119875944,121,36,3
119896740,0,25,3
119915456,81,64,3
119935232,25,0,3
119953948,16,49,3
119973704,36,9,3
119992424,0,9,3
120010108,36,25,3
120029860,9,0,3
120047532,15376,32400,3
120073536,0,0,4
120091216,1369,27889,4
120116180,3969,4,4
120136992,49,100,4
120157780,6400,1369,4
120181656,5929,23716,4
120206664,0,0,4
120224328,0,6561,4
120245148,0,5041,4
120265944,5625,36,4
120287764,5041,0,4
120308568,13689,30625,4
120334564,26896,5625,4
120359544,289,28224,4
120383432,25281,7396,4
120408436,18697,0,4
120430232,24649,6241,4
120455204,1600,5041,4
120479144,4356,0,4
120499928,17689,20164,4
120525956,22592,7056,4
120550880,25600,17689,4
120576892,196,26896,4
120600812,10640,0,4
120622636,19321,0,4
120644480,4900,400,4
120667368,0,0,4
120685076,1545,20548,4
120710008,19600,22416,4
120736008,2025,30276,4
120760964,26880,0,4
120782792,0,0,4
120800488,7744,100,4
120823380,121,0,4
120843140,49,121,4
120863952,81,25,4
120883720,144,4,4
120903460,225,81,4
120924264,144,25,4
120945076,81,36,4
120964824,841,1,4
120984568,100,0,4
121004352,25,9,4
121023060,4,0,4
121040740,4,9,4
121058440,3249,25,4
121080244,11664,484,4
121104172,2304,289,4
121127068,0,16641,4
121148880,28900,1444,4
121173848,961,6724,4
121196744,5625,9,4
121217536,7744,5625,4
121241436,6084,1600,4
121265384,5220,12544,4
121290324,15129,21025,4
121316348,64,0,4
121335056,9409,0,4
121355864,900,0,4
121375600,4624,21609,4
121400568,19044,0,4
121422404,21025,0,4
121444256,6084,256,4
121467128,28900,0,4
121488964,22500,0,4
121510816,1521,1,4
121531620,0,169,4
121551388,324,81,4
121572176,0,64,4
121590908,169,169,4
121612732,81,4,4
121631464,25,81,4
121651232,121,49,4
121672032,4,16,4
121690740,64,64,4
121710496,16,1,4
121729228,16,25,4
121748980,36,16,4
121768740,36,9,4
121787460,1024,49,4
121809296,7569,225,4
121832180,1444,144,4
121855084,36,676,4
121875876,1,9025,4
121896668,961,13689,4
121920556,16641,11664,4
121946576,0,1424,4
121967364,16129,0,4
121989220,5929,64,4
122011064,576,25,4
122031864,16,25,4
122051632,0,0,4
122069304,0,0,4
122086984,0,0,4
122104652,19321,0,4
122126492,0,0,4
122144188,841,0,4
122163952,8649,1600,4
122187844,1681,20313,4
122212792,5184,30976,4
122237744,12321,0,4
122259620,13924,0,4
122281452,16641,484,4
122305392,2209,289,4
122328252,256,100,4
122350092,1764,14884,4
122375064,729,16833,4
122398984,11449,20164,4
122424988,0,9,4
122442636,0,3025,4
122463452,9604,6400,4
122487376,24649,1764,4
122512328,0,196,4
122532104,23104,729,4
122555996,0,0,4
122573668,12544,17153,4
122599688,1444,20313,4
122624628,100,0,4
122644416,2601,9553,4
122668356,2500,31329,4
122693300,26244,11449,4
122719300,0,23409,4
122741132,27225,5329,4
122766108,4352,10816,4
122791044,24649,5625,4
122816012,21904,0,4
122837840,81,2116,4
122859684,3364,21025,4
122884632,0,0,4
122902316,11748,0,4
122924160,8100,2116,4
122948100,0,26880,4
122969924,22500,32041,4
122995920,0,6084,4
123016720,0,2704,4
123037528,225,12864,4
123061464,3600,8993,4
123085368,729,18225,4
123109268,4624,9025,4
123133216,1600,7744,4
123157120,17161,9,4
123178976,0,6400,4
123199772,0,1225,4
123220568,22500,961,4
123244464,169,0,4
123264276,841,6825,4
123287120,22201,0,4
123308960,16833,10201,4
123334996,0,32433,4
123356812,25921,0,4
123378660,4352,484,4
123401544,11057,256,4
123425444,0,19728,4
123447284,16384,2064,4
123472260,4096,1,4
123493060,7225,1936,4
123516964,3025,11025,4
123541932,20164,22500,4
123567920,0,0,4
123585616,14884,0,4
123607448,5929,441,4
123630336,3364,529,4
123653224,4356,7396,4
123677128,21609,7396,4
123702088,2304,12544,4
123727064,0,7905,4
123747848,32400,0,4
123769692,7396,25,4
123791536,441,81,4
123812336,196,225,4
123834176,21609,0,4
123856020,13689,0,4
123877856,400,16,4
123898656,2209,81,4
123920500,121,4,4
123940260,36,64,4
123960024,49,9,4
123978736,0,25,4
123997460,49,36,4
124017220,9,0,4
124034904,9,25,4
124053620,25,1936,4
124075452,16,5329,4
124097292,100,324,4
124119148,196,36,4
124139948,0,0,4
124157624,1,4,4
124175304,8100,121,4
124198164,29241,1156,4
124223144,31684,23104,4
124249124,961,121,4
124270968,14641,11881,4
124296968,0,0,4
124314672,0,0,4
124332340,0,1024,4
124353132,0,6400,4
124373920,4624,16,4
124395780,2116,484,4
124418648,9,5776,4
124439444,784,400,4
124461304,0,81,4
124480020,0,4900,4
124500816,29584,8100,4
124525768,169,0,4
124545536,5776,0,4
124566340,1936,729,4
124589220,784,49,4
124610020,1,0,4
124627700,4,1,4
124645348,0,625,4
124665116,21316,625,4
124689056,0,2500,4
124709852,26896,14641,4
124735840,0,27889,4
124757680,30976,0,4
124779556,0,1764,4
124800340,15617,3844,4
124825292,0,19145,4
124847120,18225,0,4
124868984,6724,100,4
124891860,1156,4096,4
124915764,19881,11449,4
124941780,19145,18564,4
124967764,3025,2916,4
124991692,0,17424,4
125013528,2209,13689,4
125038488,0,26896,4
125060344,10201,1089,4
125085280,0,25600,4
125107116,25600,0,4
125128984,5929,400,4
125151856,25,19321,4
125174716,0,1296,4
125195524,0,8281,4
125216332,784,16,4
125237140,196,169,4
125258988,64,16,4
125278752,9,81,4
125297452,121,64,4
125318268,9,9,4
125335952,49,49,4
125355704,49,9,4
125374424,196,25,4
125395216,225,81,4
125416012,144,36,4
125436824,9,25,4
125455552,25,4,4
125474280,25,9,4
125492972,0,25,4
125511716,3136,2500,4
125535612,8281,9025,4
125559540,22500,5041,4
125584504,100,27556,4
125608408,3025,30625,4
125633376,7364,0,4
125654180,0,0,4
125671852,10201,1600,4
125696796,32400,19600,4
125722820,26273,23865,4
125748792,12769,0,4
125770640,0,4356,4
125791464,0,1,4
125809116,6561,0,4
125829940,3481,6825,4
125853860,9540,64,4
125875680,31329,25600,4
125901704,0,29241,4
125923520,21316,23716,4
125949544,196,9216,4
125972392,0,14161,4
125994260,21904,27556,4
126020248,12544,3249,4
126045208,5476,11449,4
126070192,3364,12305,4
126095116,15120,2025,4
126120100,0,0,4
126137760,7364,10816,4
126162748,0,0,4
126180436,19881,28928,4
126206412,1936,0,4
126227212,784,10000,4
126251132,23104,0,4
126272984,3481,16900,4
126297928,225,1369,4
126320816,0,0,4
126338496,0,10089,4
126360328,7744,6825,4
126384248,0,49,4
126402960,22500,21025,4
126428980,441,784,4
126450824,32041,9025,4
126475772,7569,10000,4
126500736,29241,25281,4
126526740,3844,256,4
126549624,11881,0,4
126571452,0,2025,4
126592260,26569,22201,4
126618252,2401,2304,4
126642144,24964,0,4
126664000,7744,0,4
126684812,5776,225,4
126707696,676,676,4
126729540,1600,11881,4
126754488,15129,2704,4
126779464,0,0,4
126797132,36,32400,4
126819996,1521,0,4
126840804,0,4900,4
126861616,32400,7056,4
126886568,1024,3844,4
126910492,19321,0,4
126932336,1225,4225,4
126956236,9025,8836,4
126980188,0,20164,4
127002020,20164,15625,4
127028016,1600,1444,4
127051924,0,0,4
127069616,0,29328,4
127091460,0,28224,4
127113288,14884,9,4
127135132,1936,2401,4
127159080,256,1681,4
127181928,0,0,4
127199628,28224,2884,4
127224556,36,0,4
127243312,1024,7225,4
127267228,5329,729,4
127290108,529,0,4
127309864,4,18496,4
127331712,4624,1444,4
127355608,14641,9216,4
127380584,0,28561,4
127402412,0,21904,4
127424256,1024,1764,4
127448188,676,6561,4
127471036,0,5929,4
127491836,27225,27889,4
127517848,1225,841,4
127540744,0,6724,4
127561540,24336,22201,4
127587564,1764,1156,4
127611440,0,0,4
127629136,28100,32433,4
127655132,0,0,4
127672796,15625,7225,4
127697788,13924,4225,4
127722732,1764,14400,4
127747696,16129,0,4
127769532,8836,12769,4
127794488,7921,2704,4
127818428,0,0,4
127836100,5776,0,4
127856896,20449,10816,4
127882880,8836,26569,4
127907872,361,0,4
127927628,121,625,4
127949452,11664,15876,4
127975456,5476,12996,4
128000428,16384,0,4
128022240,17161,22201,4
128048248,24025,23104,4
128074252,7396,2304,4
128098176,0,0,4
128115864,0,0,4
128133524,1296,6889,4
128157436,12544,24025,4
128183448,0,5625,4
128204236,0,28224,4
128226096,100,841,4
128247936,4356,13225,4
128272896,1225,4,4
128293672,6561,21316,4
128318644,0,18496,4
128340516,5776,9409,4
128364404,2809,4900,4
128388344,1089,13225,4
128413280,0,2304,4
128434072,0,11236,4
128455932,2401,1156,4
128479856,0,0,4
128497508,9553,0,4
128518340,5753,0,4
128539140,5041,12769,4
128564096,2116,3364,4
128588032,9,0,4
128605696,484,0,4
128625448,0,7744,4
128646276,2401,625,4
128669124,0,29929,4
128690964,31329,22801,4
128716964,2601,4761,4
128740908,0,5476,4
128761692,30276,12321,4
128787716,784,21904,4
128811616,0,729,4
128831376,1028,27889,4
128856324,10816,1521,4
128881292,2585,19044,4
128906268,22500,0,4
128928112,24336,3844,4
128953064,225,2401,4
128975924,9604,13924,4
129000908,0,15129,4
129022728,25921,0,4
129044584,1849,0,4
129065384,0,289,4
129085140,289,36,4
129105956,1,3600,4
129126756,49,2401,4
129148556,0,400,4
129168336,0,23409,4
129190172,900,2916,4
129213064,0,529,4
129232808,676,64,4
129253644,169,169,4
129275456,36,3721,4
129297292,0,27556,4
129319144,23716,5625,4
129344092,625,2116,4
129366980,64,21316,4
129389864,0,6724,4
129410640,24649,1521,4
129435592,1369,3481,4
129459548,0,8649,4
129480332,29241,21025,4
129506352,2304,4356,4
129530248,0,3600,4
129551052,30976,25600,4
129577064,15129,6561,4
129602008,6084,36,4
129623840,14884,15376,4
129649848,0,30276,4
129671680,23716,0,4
129693520,2809,441,4
129716420,3721,7569,4
129740328,19881,676,4
129764236,22801,5776,4
129789220,0,21025,4
129811044,5041,4489,4
129834956,23409,13924,4
129860996,9409,6241,4
129884908,11664,24336,4
129910880,0,28224,4
129932716,11664,0,4
129954564,2500,169,4
129977468,0,16641,4
129999292,17424,14884,4
130025296,3136,9216,4
130049220,0,81,4
130067920,30625,0,3
130089768,4,27225,3
130111620,900,400,3
130133452,784,0,3
130153228,256,10404,3
130177144,0,64,3
130195860,0,0,3
130213532,1225,1521,3
130237464,0,0,3
130255116,4689,0,3
130275944,12864,16384,3
130301916,16129,2704,3
130326896,7921,0,3
130347672,9604,14641,3
130372640,16900,1600,3
130397604,0,9604,3
130418412,20449,9216,3
130443392,49,676,3
130464180,169,121,3
130486024,1225,7744,3
130509924,0,9,3
130527600,0,15625,3
130549448,2401,8281,3
130573376,529,4225,3
130596260,0,5625,3
130617052,32041,8281,3
130642016,144,3844,3
130664900,64,0,3
130683620,3600,22080,3
130708556,27225,7364,3
130733544,0,10404,3
130755376,8464,5929,3
130779308,121,9,3
130799052,529,1296,3
130821956,1521,1296,3
130845844,0,18769,3
130867672,30276,3844,3
130892640,3969,1444,3
130916584,0,0,3
130934256,18564,4160,3
130959208,17956,0,3
130981060,5184,100,3
131003936,13924,17689,3
131029912,0,20449,3
131051764,0,0,3
131069456,2304,1296,3
131093372,529,25,3
131114188,400,5041,3
131137056,0,100,3
131156824,0,11025,3
131178676,1024,784,3
131201560,0,1225,3
131222336,36,81,3
131242120,81,1521,3
131263960,1,576,3
131283712,64,1521,3
131305532,729,17424,3
131329436,22500,4900,3
131354420,0,22201,3
131376268,18225,121,3
131400164,32400,625,3
131424096,1,14400,3
