Timestamp (micros),Sensor1 (mV),Sensor2 (mV),Label
53872,9025,3249,1
56092,441,196,1
58224,81,121,1
60680,361,441,1
78364,289,81,1
94996,1,49,1
109536,144,121,1
128280,81,4,1
143880,1,121,1
160524,81,16,1
177160,0,4,1
191712,81,64,1
208344,9,9,1
222916,1,25,1
238508,36,0,1
254120,1,4,1
268676,16,9,1
284264,4,0,1
298832,4,9,1
313400,9,4,1
327956,0,1,1
342516,9,1,1
357068,0,25,1
372660,1,0,1
387240,1,25,1
402836,0,1,1
417392,0,25,1
433000,1,1,1
447564,1,16,1
463160,0,1,1
477716,0,4,1
492264,0,4,1
506820,0,4,1
521400,0,4,1
535960,0,16,1
551556,0,0,1
566108,0,0,1
580688,4,1,1
595240,0,1,1
609784,0,0,1
624344,0,1,1
638900,0,0,1
653484,0,4,1
668036,0,4,1
682588,0,4,1
697156,1,1,1
711716,0,4,1
726276,0,25,1
741872,0,1,1
756432,1,4,1
770988,0,0,1
785568,1,1,1
800116,0,0,1
814676,0,4,1
829228,0,1,1
843800,0,4,1
858364,0,0,1
872908,0,4,1
887476,1,1,1
902028,0,4,1
916596,1,36,1
932208,9,4,1
946748,16,1,1
962356,36,1,1
977968,9,4,1
992516,0,0,1
1007064,0,0,1
1022676,1,4,1
1038272,0,4,1
1053876,0,1,1
1069472,0,0,1
1085068,0,4,1
1100664,4,0,1
1116280,1,9,1
1131872,0,0,1
1147468,1,1,1
1163076,1,1,1
1178680,0,4,1
1194276,0,0,1
1209880,0,0,1
1225468,0,9,1
1241072,1,1,1
1256680,1,9,1
1272276,25,0,1
1288920,4,1,1
1304508,1,0,1
1320124,1,1,1
1335716,0,4,1
1351308,0,4,1
1366916,0,4,1
1382512,0,0,1
1398116,0,0,1
1413720,0,4,1
1429320,1,1,1
1444912,1,9,1
1460512,0,0,1
1476120,0,9,1
1491708,0,0,1
1507304,0,4,1
1522916,1,0,1
1538516,0,0,1
1554116,1,1,1
1569712,4,1,1
1585320,4,9,1
1600912,1,0,1
1616508,1,1,1
1632116,1,0,1
1647716,0,0,1
1663320,0,1,1
1678912,1,0,1
1694520,0,16,1
1711160,1,0,1
1726756,0,4,1
1742356,0,0,1
1757952,0,0,1
1773544,0,1,1
1789156,0,0,1
1804756,1,0,1
1820360,4,1,1
1835944,0,1,1
1851556,0,0,1
1867152,1,0,1
1882756,1,4,1
1898352,0,1,1
1913956,0,4,1
1929552,1,0,1
1945148,0,4,1
1960756,1,0,1
1976356,0,1,1
1991960,0,1,1
2007560,1,1,1
2023148,0,1,1
2038752,1,0,1
2054356,0,4,1
2069952,0,0,1
2085556,0,0,1
2101152,0,4,1
2116760,1,4,1
2132356,1,1,1
2147948,0,0,1
2163560,1,1,1
2179168,1,16,1
2195812,1,36,1
2212440,4,1,1
2228028,1,1,1
2243636,0,9,1
2259244,1,0,1
2274840,0,9,1
2290440,1,0,1
2306024,0,0,1
2321640,0,0,1
2337240,1,1,1
2352840,0,16,1
2369472,4,0,1
2385076,0,1,1
2400676,0,1,1
2416268,0,9,1
2431876,1,0,1
2447476,0,0,1
2463076,0,1,1
2478676,0,0,1
2494268,0,4,1
2509884,1,0,1
2525472,0,4,1
2541076,0,1,1
2556668,0,0,1
2572264,0,36,1
2588916,0,1,1
2604504,0,4,1
2620108,0,1,1
2635704,0,1,1
2651332,1,1,1
2666916,4,0,1
2682516,0,4,1
2698116,1,0,1
2713720,0,4,1
2729328,1,0,1
2744908,0,4,1
2760516,0,0,1
2776116,0,1,1
2791716,0,4,1
2807312,0,0,1
2822908,0,4,1
2838512,1,9,1
2854120,0,16,1
2870760,0,0,1
2886348,0,1,1
2901948,0,4,1
2917552,4,0,1
2933156,1,9,1
2948752,0,1,1
2964348,0,16,1
2980992,1,9,1
2996596,0,4,1
3012200,0,1,1
3027788,0,1,1
3043396,0,4,1
3059004,4,1,1
3074604,1,9,1
3090188,1,0,1
3105788,0,0,1
3121404,1,9,1
3136992,0,0,1
3152592,0,4,1
3168184,0,1,1
3183796,0,1,1
3199396,0,1,1
3214988,0,0,1
3230600,1,16,1
3247244,0,4,1
3262832,0,1,1
3278428,0,1,1
3294040,1,1,1
3309644,0,0,1
3325248,4,9,1
3340844,1,25,1
3357472,0,4,1
3373080,0,1,1
3388676,0,0,1
3404276,0,0,1
3419876,0,0,1
3435476,1,1,1
3451088,0,9,1
3466680,1,0,1
3482276,1,4,1
3497880,0,1,1
3513480,0,1,1
3529080,0,1,1
3544672,0,0,1
3560276,4,9,1
3575876,4,0,1
3591476,0,9,1
3607072,0,0,1
3622668,0,4,1
3638268,0,0,1
3653872,0,0,1
3669472,0,1,1
3685068,1,0,1
3700672,0,4,1
3716284,0,1,1
3731876,0,9,1
3747476,1,0,1
3763080,0,1,1
3778680,0,0,1
3794284,1,0,1
3809872,0,4,1
3825476,0,0,1
3841076,0,4,1
3856676,1,0,1
3872280,0,1,1
3887880,0,1,1
3903460,0,0,1
3919072,0,4,1
3934676,1,1,1
3950272,0,9,1
3965872,0,0,1
3981476,0,1,1
3997080,1,0,1
4012676,0,0,1
4028280,1,4,1
4043876,0,0,1
4059484,1,4,1
4075076,1,1,1
4090680,0,9,1
4106276,4,0,1
4121884,1,4,1
4137480,1,1,1
4153076,1,0,1
4168664,0,4,1
4184280,0,1,1
4199868,0,9,1
4215480,0,1,1
4231072,1,4,1
4246676,1,1,1
4262276,0,0,1
4277864,0,4,1
4293472,1,0,1
4309076,0,16,1
4325716,4,1,1
4341312,0,1,1
4356916,1,4,1
4372516,0,1,1
4388116,0,0,1
4403716,1,0,1
4419304,0,4,1
4434900,0,0,1
4450520,0,4,1
4466116,0,0,1
4481708,0,0,1
4497304,0,4,1
4512912,1,0,1
4528524,0,1,1
4544120,4,9,1
4559716,0,25,1
4576364,1,0,1
4591956,0,0,1
4607552,0,4,1
4623156,1,0,1
4638748,1,0,1
4654364,1,1,1
4669948,0,4,1
4685556,0,0,1
4701148,1,0,1
4716764,1,4,1
4732348,0,0,1
4747948,0,9,1
4763548,1,0,1
4779156,0,9,1
4794756,0,0,1
4810352,0,1,1
4825948,0,4,1
4841552,0,0,1
4857152,1,9,1
4872756,1,0,1
4888348,0,9,1
4903956,0,0,1
4919556,0,1,1
4935152,0,1,1
4950756,0,0,1
4966344,1,4,1
4981952,9,0,1
4997556,4,1,1
5013156,0,1,1
5028756,0,4,1
5044356,4,0,1
5059964,1,0,1
5075556,1,9,1
5091152,1,0,1
5106756,0,4,1
5122360,1,1,1
5137956,0,16,1
5154592,0,1,1
5170200,0,0,1
5185792,0,0,1
5201384,1,0,1
5216984,0,1,1
5232580,0,4,1
5248196,0,4,1
5263788,1,0,1
5279400,0,4,1
5294996,4,0,1
5310596,9,1,1
5326212,1,1,1
5341788,0,0,1
5357396,1,1,1
5372996,4,1,1
5388596,0,1,1
5404204,1,0,1
5419792,1,0,1
5435376,0,9,1
5451000,4,0,1
5466600,4,9,1
5482192,0,0,1
5497780,0,4,1
5513392,0,4,1
5529004,1,4,1
5544592,0,1,1
5560184,0,0,1
5575792,0,16,1
5592436,0,0,1
5608028,0,4,1
5623628,0,0,1
5639236,0,0,1
5654840,0,9,1
5670436,0,9,1
5686040,0,0,1
5701628,0,4,1
5717232,0,16,1
5733876,1,0,1
5749476,0,0,1
5765060,0,0,1
5780676,4,1,1
5796268,0,4,1
5811876,1,0,1
5827480,0,4,1
5843076,0,0,1
5858676,0,4,1
5874276,1,0,1
5889880,0,4,1
5905480,1,9,1
5921076,4,0,1
5936676,0,4,1
5952264,0,0,1
5967864,0,0,1
5983480,0,16,1
6000120,1,1,1
6015704,0,1,1
6031300,0,0,1
6046916,0,4,1
6062508,1,1,1
6078104,0,0,1
6093716,0,25,1
6110364,4,1,1
6125968,1,9,1
6141548,0,0,1
6157152,0,1,1
6172764,0,0,1
6188356,1,0,1
6203952,0,9,1
6219548,0,1,1
6235156,0,1,1
6250752,0,0,1
6266348,1,1,1
6281956,4,1,1
6297544,0,4,1
6313164,0,0,1
6328748,1,1,1
6344348,0,9,1
6359956,1,0,1
6375568,1,9,1
6391156,0,0,1
6406748,0,0,1
6422352,0,4,1
6437956,0,0,1
6453556,0,4,1
6469156,4,0,1
6484748,4,4,1
6500340,0,0,1
6515956,0,1,1
6531544,0,4,1
6547152,0,1,1
6562744,0,1,1
6578352,0,0,1
6593956,0,9,1
6609556,1,1,1
6625152,1,1,1
6640760,0,1,1
6656356,0,4,1
6671956,0,0,1
6687552,0,0,1
6703156,0,4,1
6718756,0,0,1
6734356,0,4,1
6749960,1,1,1
6765548,1,0,1
6781156,1,4,1
6796756,0,4,1
6812356,0,1,1
6827948,1,0,1
6843560,1,4,1
6859156,0,0,1
6874752,0,4,1
6890356,0,1,1
6905956,0,4,1
6921548,0,0,1
6937156,1,0,1
6952748,0,4,1
6968356,0,0,1
6983960,0,4,1
6999556,1,0,1
7015152,0,4,1
7030748,0,0,1
7046356,0,0,1
7061952,0,9,1
7077548,0,0,1
7093148,0,9,1
7108752,0,0,1
7124356,0,4,1
7139956,1,0,1
7155548,0,0,1
7171164,1,0,1
7186756,0,0,1
7202352,0,4,1
7217944,0,0,1
7233556,0,4,1
7249168,1,1,1
7264748,0,1,1
7280352,0,1,1
7295940,0,0,1
7311552,0,4,1
7327156,1,0,1
7342748,0,4,1
7358352,1,0,1
7373952,0,0,1
7389564,1,4,1
7405148,0,9,1
7420752,0,0,1
7436364,1,0,1
7451960,0,16,1
7468592,0,1,1
7484192,0,1,1
7499796,0,0,1
7515396,1,0,1
7530988,0,1,1
7546592,0,0,1
7562180,0,4,1
7577796,0,0,1
7593396,0,4,1
7608992,1,0,1
7624592,4,1,1
7640192,1,0,1
7655792,0,0,1
7671396,1,1,1
7686988,4,0,1
7702600,1,4,1
7718204,0,1,1
7733804,1,1,1
7749396,1,1,1
7764988,4,0,1
7780600,1,16,1
7797240,0,1,1
7812840,0,1,1
7828432,0,1,1
7844040,1,1,1
7859644,1,4,1
7875236,1,0,1
7890836,1,1,1
7906436,0,0,1
7922040,0,4,1
7937636,1,0,1
7953228,0,1,1
7968836,0,1,1
7984436,0,0,1
8000048,1,1,1
8015636,4,1,1
8031224,0,4,1
8046840,1,0,1
8062428,0,9,1
8078028,0,0,1
8093628,1,0,1
8109236,0,1,1
8124844,0,0,1
8140428,0,4,1
8156028,0,0,1
8171636,0,4,1
8187248,1,4,1
8202832,0,4,1
8218432,0,1,1
8234032,0,0,1
8249632,0,4,1
8265244,0,0,1
8280828,0,1,1
8296424,0,1,1
8312040,0,0,1
8327636,0,1,1
8343228,0,0,1
8358828,0,1,1
8374436,0,1,1
8390032,0,25,1
8406680,4,1,1
8422268,0,1,1
8437876,0,1,1
8453476,0,1,1
8469080,0,4,1
8484680,1,1,1
8500280,0,1,1
8515880,0,1,1
8531484,1,1,1
8547076,4,1,1
8562664,0,1,1
8578280,0,1,1
8593864,0,0,1
8609468,0,4,1
8625060,0,0,1
8640680,0,4,1
8656276,0,0,1
8671868,0,1,1
8687476,0,0,1
8703080,0,1,1
8718680,0,1,1
8734264,0,0,1
8749876,0,1,1
8765476,0,4,1
8781080,0,4,1
8796672,0,1,1
8812264,0,0,1
8827860,0,9,1
8843476,0,1,1
8859072,0,1,1
8874676,1,0,1
8890268,0,4,1
8905872,0,0,1
8921488,1,1,1
8937080,4,0,1
8952680,0,1,1
8968288,0,1,1
8983880,0,0,1
8999468,0,9,1
9015076,1,0,1
9030680,0,4,1
9046288,0,0,1
9061880,0,1,1
9077468,0,4,1
9093064,1,0,1
9108672,0,4,1
9124276,1,0,1
9139872,0,4,1
9155480,1,1,1
9171076,0,1,1
9186676,0,1,1
9202276,1,0,1
9217872,0,9,1
9233472,0,0,1
9249084,1,9,1
9264684,0,0,1
9280268,0,1,1
9295860,1,0,1
9311480,0,1,1
9327076,0,1,1
9342664,0,0,1
9358264,0,4,1
9373880,0,1,1
9389476,0,0,1
9405080,0,4,1
9420680,1,1,1
9436276,0,1,1
9451884,1,0,1
9467468,1,9,1
9483064,0,0,1
9498680,0,4,1
9514280,0,1,1
9529876,0,4,1
9545472,1,0,1
9561072,0,1,1
9576676,0,1,1
9592276,1,0,1
9607868,0,4,1
9623472,1,1,1
9639088,0,9,1
9654680,0,0,1
9670276,0,4,1
9685868,0,0,1
9701484,0,0,1
9717076,0,1,1
9732664,0,0,1
9748276,0,4,1
9763880,1,1,1
9779476,0,4,1
9795080,0,0,1
9810668,0,0,1
9826268,0,4,1
9841872,0,0,1
9857472,0,4,1
9873068,4,0,1
9888668,4,1,1
9904276,0,4,1
9919876,0,0,1
9935468,0,1,1
9951068,0,0,1
9966688,1,9,1
9982280,4,1,1
9997868,0,4,1
10013476,1,0,1
10030128,1,1,1
10046756,0,1,1
10063396,0,0,4
10080028,0,1,4
10096680,0,1,4
10113316,4,0,4
10129964,1,1,4
10146596,1,1,4
10163240,1,0,4
10179880,9,1,4
10196520,16,4,4
10214184,0,0,4
10230832,4,0,4
10247476,0,1,4
10264116,0,0,4
10280744,0,0,4
10297396,4,0,4
10314040,4,4,4
10330680,9,1,4
10347312,64,16,4
10366036,100,1,4
10384760,324,4,4
10403468,289,16,4
10423224,36,4,4
10440916,0,0,4
10457552,9,0,4
10474192,49,4,4
10491860,25,1,4
10509556,4,1,4
10526196,9,9,4
10542840,9,1,4
10559464,0,1,4
10576120,1,4,4
10592760,9,0,4
10609388,25,0,4
10627068,9,0,4
10643724,1,0,4
10660352,1,0,4
10676988,1,1,4
10693640,4,1,4
10710272,0,0,4
10726908,16,1,4
10744588,16,0,4
10762276,1,1,4
10778916,1,0,4
10795564,0,0,4
10812184,0,0,4
10828832,4,0,4
10845476,0,0,4
10862128,1,0,4
10878756,0,0,4
10895404,0,1,4
10912048,9,1,4
10928680,9,0,4
10945312,1,0,4
10961956,1,1,4
10978596,1,0,4
10995248,16,1,4
11012916,9,0,4
11029556,1,1,4
11046196,4,0,4
11062840,0,4,4
11079476,0,0,4
11096116,0,0,4
11112760,16,1,4
11130424,36,0,4
11148116,4,0,4
11164768,9,1,4
11181404,9,0,4
11198028,1,0,4
11214664,0,0,4
11231316,0,4,4
11247952,0,0,4
11264596,16,4,4
11282264,49,0,4
11299960,81,1,4
11317640,324,9,4
11336356,81,4,4
11354028,81,0,4
11371724,256,9,4
11390428,361,9,4
11409156,289,9,4
11427876,121,4,4
11446600,25,0,4
11464280,1,16,4
11481948,0,81,4
11499644,4,49,4
11517324,4,1,4
11533944,16,25,4
11552668,16,16,4
11571400,1,36,4
11589076,16,144,4
11608836,4,25,4
11626516,64,1,4
11644200,144,0,4
11662908,196,0,4
11681632,100,4,4
11700364,1,4,4
11716996,36,1,4
11734668,16,1,4
11752352,0,0,4
11768996,9,0,4
11785648,1,4,4
11802268,81,0,4
11819952,1,9,4
11836604,576,16,4
11856344,1089,25,4
11877148,361,225,4
11897960,9,256,4
11916676,9,81,4
11934360,9,49,4
11952028,16,16,4
11970764,16,225,4
11990520,0,9,4
12007156,4,169,4
12025880,9,441,4
12044596,64,225,4
12064356,25,1,4
12082032,9,9,4
12098672,0,64,4
12116364,4,121,4
12135072,1,144,4
12153784,0,144,4
12172524,25,64,4
12191236,49,144,4
12211004,25,9,4
12228688,1,25,4
12246372,9,0,4
12262992,25,49,4
12281724,25,1,4
12299400,1,4,4
12316036,0,1,4
12332668,9,289,4
12351392,9,1024,4
12371160,16,196,4
12390912,16,0,4
12408596,144,169,4
12429396,400,484,4
12450200,196,676,4
12470996,169,576,4
12491804,196,9,4
12510520,64,1,4
12528192,1,1,4
12544840,9,361,4
12563556,4,784,4
12582288,16,400,4
12602032,4,1,4
12618664,0,4,4
12635316,9,144,4
12654036,1,49,4
12671724,9,0,4
12688348,1,121,4
12707076,25,196,4
12726828,49,1,4
12744508,49,1,4
12762204,25,1,4
12779876,25,49,4
12798604,1,64,4
12816268,121,400,4
12837076,289,400,4
12857880,100,361,4
12878676,36,441,4
12898440,25,1,4
12916132,1,49,4
12933784,9,49,4
12951460,4,169,4
12970204,4,4,4
12986836,9,169,4
13005556,4,361,4
13024284,9,121,4
13043008,9,25,4
13060684,1,0,4
13077312,81,121,4
13097072,169,9,4
13115796,121,576,4
13136604,0,121,4
13155312,25,16,4
13174048,0,1,4
13190692,25,196,4
13210440,100,289,4
13231244,25,16,4
13249964,0,4,4
13266596,4,196,4
13285312,1,361,4
13304048,0,25,4
13321704,0,225,4
13340436,1,225,4
13359168,49,36,4
13377880,225,1,4
13396588,100,25,4
13416356,0,36,4
13434044,4,100,4
13452744,0,81,4
13470424,25,49,4
13489140,9,49,4
13506836,0,16,4
13524524,9,64,4
13542192,0,9,4
13558848,1,16,4
13576520,81,196,4
13596280,25,1,4
13613956,36,256,4
13633720,36,144,4
13653472,0,81,4
13671148,0,256,4
13689884,1,64,4
13707564,16,64,4
13726268,1,225,4
13744996,36,100,4
13764756,49,1,4
13782444,25,9,4
13800116,25,324,4
13819864,9,0,4
13836524,1,1156,4
13856276,64,441,4
13876040,121,64,4
13895800,4,36,4
13913488,25,49,4
13932200,4,0,4
13948824,289,841,4
13969636,144,100,4
13990440,1,625,4
14009148,49,324,4
14028916,121,49,4
14048696,0,4,4
14065312,36,121,4
14085072,49,36,4
14103800,36,64,4
14122520,0,25,4
14140200,0,169,4
14158924,81,729,4
14178672,81,144,4
14198428,9,16,4
14216108,1,121,4
14234840,9,0,4
14251464,25,400,4
14271236,0,16,4
14288912,1,625,4
14307644,16,16,4
14326352,9,169,4
14345076,49,1,4
14362768,4,256,4
14381480,16,361,4
14401224,4,9,4
14417872,9,81,4
14435556,4,144,4
14454276,144,361,4
14475064,144,36,4
14494840,0,25,4
14512528,49,1,4
14530192,0,256,4
14548908,25,256,4
14568672,16,100,4
14588444,144,900,4
14609232,49,169,4
14629004,4,9,4
14645636,0,36,4
14663320,4,0,4
14679960,4,81,4
14697636,9,9,4
14714280,1,256,4
14732996,49,289,4
14752744,64,256,4
14772516,25,121,4
14792276,4,25,4
14809956,144,49,4
14829712,169,100,4
14850512,9,9,4
14867164,25,16,4
14885876,4,25,4
14903560,4,9,4
14920204,0,25,4
14937864,49,1849,4
14958668,169,4096,4
14980512,289,400,4
15001312,256,0,4
15020040,1,0,4
15036676,0,64,4
15054356,81,81,4
15073076,49,289,4
15092844,64,1,4
15110520,36,4,4
15128200,9,0,4
15144844,16,1,4
15162512,144,729,4
15183312,64,841,4
15203072,16,100,4
15222840,49,9,4
15240528,81,49,4
15259224,0,36,4
15276908,25,25,4
15295644,1,9,4
15312272,0,9,4
15328908,0,16,4
15346592,4,1,4
15363236,25,36,4
15381960,0,4,4
15398600,25,1,4
15416268,1,4,4
15432916,16,9,4
15450584,100,1849,4
15472428,529,4624,4
15494276,100,0,4
15512996,64,576,4
15532760,289,16,4
15552492,121,1600,4
15574352,169,3249,4
15596188,784,1369,4
15618016,289,841,4
15638844,4,100,4
15657552,36,81,4
15676264,1,361,4
15695008,25,225,4
15714752,64,121,4
15734512,64,64,4
15753240,1,4,4
15769876,16,36,4
15788588,0,25,4
15806268,9,9,4
15822916,16,25,4
15841648,16,169,4
15861392,16,400,4
15881156,9,36,4
15898832,81,361,4
15918588,144,841,4
15939392,64,9,4
15957088,1,121,4
15975796,16,0,4
15993468,4,81,4
16011156,1,36,4
16028840,1,9,4
16045480,4,25,4
16063144,9,64,4
16080828,36,324,4
16100604,16,81,4
16119328,25,0,4
16136996,49,1,4
16154688,64,25,4
16173396,64,144,4
16193144,0,529,4
16211864,0,784,4
16230600,1,225,4
16249316,1,25,4
16266984,64,0,4
16284684,4,25,4
16302356,9,36,4
16320036,36,169,4
16339792,16,676,4
16359552,49,100,4
16379312,81,4,4
16396996,4,81,4
16414668,1,576,4
16433404,9,100,4
16452128,4,81,4
16469796,16,0,4
16487492,4,441,4
16506208,25,196,4
16525960,9,25,4
16543632,9,49,4
16561320,4,0,4
16577964,0,9,4
16594604,0,4,4
16611232,49,169,4
16630988,81,841,4
16650752,36,225,4
16670508,64,4,4
16688204,9,4,4
16704844,0,4,4
16721468,0,36,4
16739160,25,100,4
16758916,196,324,4
16779716,100,576,4
16800512,4,64,4
16818200,36,49,4
16836924,25,0,4
16854596,36,9,4
16872276,81,16,4
16890992,4,64,4
16908692,0,16,4
16926360,49,36,4
16945072,49,9,4
16962756,4,0,4
16979392,0,0,4
16996036,9,196,4
17014748,25,729,4
17034528,49,361,4
17054284,16,4,4
17071956,9,16,4
17089640,36,0,4
17107320,9,196,4
17126032,9,9,4
17142676,4,441,4
17161392,25,121,4
17181156,25,25,4
17199880,9,144,4
17218600,4,49,4
17236280,0,0,4
17252916,0,0,4
17269552,1,16,4
17287248,9,289,4
17305960,25,400,4
17325720,16,36,4
17344432,9,64,4
17362124,4,289,4
17380844,9,100,4
17399552,25,16,4
17418280,16,25,4
17437004,9,100,4
17455716,4,1,4
17472352,1,81,4
17490040,36,81,4
17508760,36,400,4
17528516,1,4,4
17545148,1,0,4
17561800,9,36,4
17579476,16,225,4
17599228,25,121,4
17618996,4,1,4
17635640,4,1,4
17652276,1,4,4
17668908,16,16,4
17687648,36,36,4
17706364,1,4,4
17722996,36,1,4
17740660,0,400,4
17759404,169,1369,4
17781228,196,169,4
17802028,64,100,4
17821816,0,484,4
17840516,1,361,4
17859232,25,64,4
17877944,64,9,4
17895652,4,9,4
17912280,25,4,4
17929948,4,16,4
17947616,49,841,4
17967400,49,2401,4
17988192,144,625,4
18008996,100,1,4
18027716,1,16,4
18045392,4,4,4
18062036,49,36,4
18080744,0,49,4
18098448,4,4,4
18115076,9,36,4
18132752,16,400,4
18152520,64,64,4
18171244,49,121,4
18190996,1,49,4
18208664,0,169,4
18227400,0,9,4
18244020,36,961,4
18263788,9,196,4
18282520,36,49,4
18301232,9,64,4
18318908,0,1024,4
18338664,81,1849,4
18359480,25,961,4
18379236,0,16,4
18396916,0,9,4
18413548,1,0,4
18430200,16,169,4
18449964,100,841,4
18470744,0,289,4
18489480,121,324,4
18510264,81,625,4
18530028,36,64,4
18548760,49,25,4
18567480,4,0,4
18584116,1,16,4
18601784,25,256,4
18621548,25,841,4
18641316,16,1369,4
18662108,64,1089,4
18682916,100,1024,4
18704768,16,64,4
18723480,9,16,4
18741156,1,0,4
18757812,9,25,4
18775480,1,4,4
18792108,1,4,4
18808744,25,81,4
18827476,100,81,4
18847232,36,16,4
18865956,0,256,4
18884688,36,529,4
18904440,100,400,4
18925228,100,1,4
18943932,324,3721,4
18965784,784,13689,4
18988676,961,2304,4
19010508,484,0,4
19029240,0,4,4
19045884,9,169,4
19064588,81,361,4
19084356,0,49,4
19102040,49,0,4
19119724,81,1,4
19137400,81,36,4
19156104,400,256,4
19176904,9,0,4
19193556,144,484,4
19214360,324,484,4
19235160,196,256,4
19255948,4,196,4
19274680,4,16,4
19292352,0,289,4
19311068,9,1089,4
19330832,25,196,4
19350592,25,1764,4
19371400,676,5329,4
19393240,784,225,4
19414040,225,529,4
19434844,36,676,4
19454584,36,576,4
19474344,1,1,4
19490988,36,49,4
19509704,25,324,4
19529472,169,676,4
19550280,4,196,4
19569012,4,64,4
19586664,9,81,4
19604360,1,25,4
19622040,9,9,4
19638676,0,196,4
19657392,4,169,4
19676112,4,1,4
19692752,4,0,4
19709396,16,16,4
19728116,4,49,4
19745800,4,1,4
19762444,0,0,4
19779084,25,9,4
19796752,16,16,4
19815476,1,16,4
19833156,0,49,4
19850832,0,36,4
19868516,1,16,4
19886212,4,16,4
19903872,0,36,4
19921560,4,49,4
19939236,4,4,4
19955884,0,64,4
19973556,36,100,4
19993312,36,64,4
20012048,1,676,4
20030760,16,441,4
20050524,16,9,4
20068188,4,36,5
20085880,9,0,5
20102520,4,1,5
20119148,4,81,5
20136828,0,169,5
20155560,9,9,5
20172204,36,9,5
20189880,25,1,5
20207540,9,9,5
20224204,16,4,5
20241880,1,0,5
20258524,4,9,5
20275156,1,9,5
20291804,9,49,5
20309468,16,4,5
20327156,16,81,5
20345884,0,1,5
20362512,49,0,5
20380204,16,1,5
20397872,25,9,5
20415560,9,1,5
20432204,1,1,5
20448840,1,9,5
20465476,0,9,5
20482112,0,36,5
20499804,0,4,5
20516436,1,324,5
20535156,9,16,5
20552836,225,729,5
20573628,121,256,5
20594428,4,289,5
20613160,121,729,5
20633960,36,400,5
20653704,25,144,5
20673464,16,144,5
20693232,0,121,5
20711964,25,576,5
20731712,81,1296,5
20752508,441,256,5
20773308,100,49,5
20793084,0,25,5
20810752,0,36,5
20828436,0,225,5
20847144,0,0,5
20863784,144,64,5
20883552,121,289,5
20904352,25,729,5
20924116,1,196,5
20942828,49,100,5
20962604,9,225,5
20981316,4,16,5
20998992,9,16,5
21016692,1,1,5
21033316,4,144,5
21052040,9,49,5
21069720,64,36,5
21088436,16,81,5
21107156,1,64,5
21124836,0,36,5
21142508,0,9,5
21159168,1,1,5
21175804,0,9,5
21192432,16,289,5
21212192,81,100,5
21231952,64,49,5
21250676,4,256,5
21269400,36,49,5
21288120,169,729,5
21308908,169,256,5
21329708,49,49,5
21348444,1,100,5
21367152,49,676,5
21386920,100,576,5
21407708,25,121,5
21427484,81,25,5
21446196,64,9,5
21463864,25,4,5
21481560,49,9,5
21499236,36,4,5
21516920,0,100,5
21535624,144,361,5
21556436,4,25,5
21574120,36,1,5
21591796,1,36,5
21609476,36,121,5
21629240,676,49,5
21648988,16,36,5
21667708,625,4,5
21686432,441,0,5
21705148,256,0,5
21723880,81,16,5
21742608,0,169,5
21761324,0,81,5
21779000,1,1,5
21795636,36,16,5
21814364,121,144,5
21835168,25,4,5
21852836,25,324,5
21872584,100,25,5
21892356,81,4,5
21910036,9,0,5
21926664,0,64,5
21944360,49,100,5
21964116,64,16,5
21982836,4,36,5
22000520,4,4,5
22017164,4,25,5
22034836,1,4,5
22051468,0,196,5
22070196,25,144,5
22089968,169,9,5
22108668,81,9,5
22126364,9,196,5
22145080,121,484,5
22165880,64,1,5
22183544,9,361,5
22202272,81,4,5
22219960,0,64,5
22237644,25,36,5
22256348,0,64,5
22274036,1,49,5
22291720,64,64,5
22310452,144,196,5
22331232,121,324,5
22352036,81,121,5
22371792,100,64,5
22391552,36,64,5
22410276,1,0,5
22426916,0,0,5
22443556,4,0,5
22460184,16,81,5
22478916,16,169,5
22498676,49,1,5
22516352,16,9,5
22534032,16,121,5
22553796,9,361,5
22572516,4,16,5
22590200,25,25,5
22608916,1,9,5
22625556,0,25,5
22643248,1,100,5
22661956,9,100,5
22680672,25,49,5
22699396,9,16,5
22717076,1,0,5
22733720,25,36,5
22752436,49,225,5
22772196,81,100,5
22791944,225,81,5
22811716,64,64,5
22830428,100,1521,5
22852276,400,3844,5
22874112,196,196,5
22894920,25,169,5
22914676,25,36,5
22933396,1,4,5
22950032,4,4,5
22966676,36,1,5
22984348,25,4,5
23002032,4,9,5
23018684,4,4,5
23035308,36,1,5
23052996,4,49,5
23070672,9,16,5
23088368,9,0,5
23105000,36,0,5
23122664,0,0,5
23139308,9,9,5
23155968,100,25,5
23175716,225,100,5
23196512,16,16,5
23215236,0,1,5
23231876,16,49,5
23250600,9,1,5
23267228,0,36,5
23284924,25,256,5
23304672,25,144,5
23324436,9,0,5
23341088,49,100,5
23360836,49,36,5
23379548,0,1,5
23396184,4,64,5
23413872,0,25,5
23431564,9,9,5
23448196,25,16,5
23466916,25,36,5
23485644,16,9,5
23503324,0,121,5
23522032,36,361,5
23541808,121,324,5
23562600,324,441,5
23583400,324,841,5
23604184,100,576,5
23624992,9,25,5
23642676,49,256,5
23662432,256,64,5
23682196,16,81,5
23700924,36,196,5
23720672,1,361,5
23739400,0,25,5
23757076,49,900,5
23776828,100,841,5
23797620,81,1521,5
23818440,169,2704,5
23840272,576,484,5
23861076,289,4,5
23879788,0,324,5
23898516,100,1024,5
23920356,484,361,5
23941164,36,100,5
23960912,0,0,5
23977548,25,0,5
23995232,36,49,5
24013964,81,25,5
24032672,100,36,5
24052424,16,25,5
24071148,4,9,5
24087804,9,1,5
24104424,0,169,5
24123156,4,169,5
24141884,0,9,5
24158536,4,16,5
24176188,25,4,5
24193868,36,4,5
24211560,9,1,5
24228196,64,144,5
24247944,49,324,5
24267712,16,9,5
24285404,36,36,5
24304108,9,36,5
24321796,0,4,5
24338436,1,0,5
24355084,1,9,5
24371708,0,4,5
24388360,36,9,5
24406040,100,49,5
24425800,25,4,5
24443484,0,9,5
24460120,16,4,5
24477800,121,9,5
24496520,36,0,5
24514184,4,64,5
24531872,25,9,5
24549556,36,1,5
24567232,9,36,5
24584916,1,100,5
24603624,1,81,5
24621316,0,64,5
24638996,0,36,5
24656680,1,1,5
24673316,0,0,5
24689956,16,4,5
24707644,36,16,5
24726356,16,81,5
24745084,4,49,5
24762752,0,36,5
24780432,16,121,5
24800200,1,4,5
24816848,81,9,5
24834520,4,36,5
24852192,16,0,5
24869860,36,1,5
24887552,16,1,5
24905240,4,49,5
24922928,4,4,5
24939560,0,36,5
24957236,9,36,5
24974908,25,100,5
24994680,9,121,5
25013396,36,169,5
25033156,25,25,5
25051872,0,4,5
25068500,16,0,5
25086204,1,0,5
25102832,1,9,5
25119476,0,169,5
25138204,1,81,5
25155884,169,36,5
25175636,361,100,5
25196428,64,25,5
25215156,1,4,5
25231796,1,16,5
25249480,9,81,5
25267144,16,121,5
25286924,0,1,5
25303560,25,49,5
25322280,16,16,5
25340996,9,0,5
25357640,1,4,5
25374276,1,64,5
25391956,9,289,5
25410668,4,169,5
25429400,0,169,5
25448104,0,64,5
25465776,16,1,5
25483472,9,25,5
25501156,0,36,5
25518840,1,0,5
25535472,4,0,5
25552128,0,4,5
25568756,1,25,5
25586436,4,0,5
25603080,9,4,5
25619716,25,1,5
25637392,16,64,5
25656108,4,0,5
25672768,4,64,5
25690440,0,36,5
25708116,1,9,5
25724744,0,9,5
25741396,0,0,5
25758048,9,64,5
25775704,9,0,5
25792348,4,16,5
25810044,1,0,5
25826676,0,9,5
25843320,4,4,5
25859960,0,4,5
25876596,0,0,5
25893240,0,9,5
25909876,1,4,5
25926508,1,1,5
25943160,0,25,5
25960844,0,36,5
25978516,0,1,5
25995164,0,9,5
26011796,4,0,5
26028436,0,4,5
26045068,0,0,5
26061712,4,1,5
26078360,0,36,5
26096036,1,64,5
26113720,0,9,5
26130336,0,9,5
26146992,0,25,5
26164676,0,0,5
26181312,0,1,5
26197940,0,0,5
26214588,0,1,5
26231240,1,9,5
26247876,1,4,5
26264508,0,1,5
26281156,16,0,5
26298832,9,1,5
26315480,1,9,5
26332100,0,4,5
26348756,0,1,5
26365396,0,0,5
26382028,0,0,5
26398660,0,0,5
26415312,0,0,5
26431948,0,0,5
26448588,0,0,5
26465224,0,1,5
26481876,0,9,5
26498512,0,9,5
26515148,0,1,5
26531776,0,9,5
26548444,1,49,5
26566112,0,9,5
26582748,0,1,5
26599392,1,4,5
26616032,9,64,5
26633712,25,100,5
26653480,1,1,5
26670116,25,9,5
26687796,36,9,5
26705468,9,1,5
26722116,9,16,5
26739792,64,169,5
26759552,25,144,5
26779320,0,0,5
26795948,0,9,5
26812596,0,81,5
26830276,4,16,5
26847944,4,1,5
26864580,0,36,5
26882272,1,64,5
26899960,1,4,5
26916592,0,64,5
26934264,9,9,5
26950916,1,0,5
26967552,0,4,5
26984196,9,1,5
27000836,25,9,5
27018516,0,4,5
27035160,0,4,5
27051792,16,0,5
27069476,25,121,5
27089236,0,0,5
27105880,4,324,5
27124588,25,144,5
27144356,25,4,5
27162032,0,16,5
27179720,1,1,5
27196356,1,4,5
27213008,4,1,5
27229640,1,1,5
27246268,0,16,5
27263948,16,49,5
27282680,100,100,5
27303472,100,64,5
27323236,0,1,5
27339876,4,36,5
27357572,1,400,5
27376272,49,169,5
27396024,64,1,5
27413716,0,25,5
27431384,0,25,5
27449072,16,36,5
27467808,144,16,5
27487556,441,64,5
27507316,121,1,5
27526044,1,1,5
27542680,0,1,5
27559316,4,4,5
27575948,0,16,5
27593632,9,36,5
27611312,0,289,5
27630036,9,225,5
27648756,36,9,5
27666440,1,9,5
27683088,4,25,5
27700764,0,4,5
27717400,1,1,5
27734040,16,1,5
27751724,0,0,5
27768368,1,0,5
27784988,100,0,5
27803724,100,1,5
27822440,25,1,5
27840120,0,0,5
27856748,64,49,5
27875472,64,16,5
27894196,1,1,5
27910836,16,16,5
27929552,4,1,5
27946200,9,0,5
27962832,1,0,5
27979472,9,1,5
27996116,9,1,5
28012764,9,1,5
28029396,25,9,5
28047068,64,9,5
28064748,25,0,5
28082432,16,0,5
28100120,9,0,5
28116756,1,25,5
28134444,9,0,5
28151088,9,16,5
28168752,0,0,5
28185388,16,4,5
28203072,4,16,5
28220752,1,25,5
28238436,4,9,5
28255068,49,81,5
28273804,169,121,5
28294588,49,36,5
28313316,1,1,5
28329944,4,25,5
28347640,0,0,5
28364264,1,64,5
28381944,25,441,5
28401716,36,16,5
28420440,4,16,5
28438104,16,49,5
28456832,1,100,5
28475560,64,81,5
28494272,0,196,5
28512996,4,81,5
28530668,16,16,5
28549396,9,1,5
28566040,16,16,5
28584760,1,9,5
28601396,0,25,5
28619080,0,49,5
28636756,16,4,5
28654448,1,9,5
28671072,289,4,5
28689796,169,25,5
28709556,9,81,5
28727224,36,49,5
28745960,0,16,5
28763624,16,121,5
28783392,0,441,5
28802112,0,100,5
28820844,25,169,5
28840592,49,256,5
28860348,121,64,5
28880116,144,0,5
28898852,25,16,5
28917552,0,9,5
28934204,1,16,5
28951888,36,1,5
28969556,36,9,5
28987236,9,16,5
29004916,9,9,5
29021556,100,4,5
29040276,49,4,5
29057948,1,4,5
29074600,4,9,5
29091240,0,0,5
29107880,9,1,5
29124512,9,9,5
29141168,1,49,5
29158828,81,9,5
29176512,169,0,5
29195220,121,49,5
29215000,16,81,5
29233716,1,9,5
29250348,0,4,5
29266992,0,36,5
29284676,1,25,5
29302356,1,0,5
29318992,4,0,5
29335636,1,0,5
29352276,0,0,5
29368920,1,1,5
29385560,4,1,5
29402200,4,1,5
29418836,1,1,5
29435476,1,0,5
29452112,25,0,5
29469796,36,0,5
29487476,4,1,5
29504116,9,4,5
29520756,81,25,5
29539476,49,9,5
29557156,4,1,5
29573784,0,0,5
29590432,0,4,5
29607080,1,0,5
29623712,9,4,5
29640356,9,1,5
29656988,1,0,5
29673644,1,0,5
29690276,0,9,5
29706920,0,4,5
29723552,0,4,5
29740208,0,9,5
29756836,0,9,5
29773464,0,16,5
29791144,0,4,5
29807804,0,0,5
29824428,0,4,5
29841076,0,16,5
29858740,9,16,5
29876440,4,1,5
29893072,0,4,5
29909720,4,4,5
29926352,1,1,5
29942996,0,1,5
29959632,9,1,5
29976276,9,9,5
29992908,16,9,5
30010600,36,1,5
30028268,9,0,5
30044916,25,4,5
30062600,25,9,6
30080284,0,0,6
30096916,1,0,6
30113552,1,1,6
30130196,1,0,6
30146844,0,9,6
30163476,0,4,6
30180104,0,0,6
30196756,0,1,6
30213396,0,0,6
30230036,0,4,6
30246676,0,4,6
30263316,0,1,6
30279956,1,1,6
30296600,4,0,6
30313240,16,1,6
30330920,4,0,6
30347560,9,1,6
30364200,81,9,6
30381880,36,1,6
30399564,1,0,6
30416200,0,1,6
30432840,9,4,6
30449472,4,4,6
30466116,0,0,6
30482764,4,1,6
30499400,1,0,6
30516044,4,4,6
30532680,1,4,6
30549324,9,4,6
30565956,0,25,6
30583636,49,4,6
30601324,1,0,6
30617956,36,25,6
30636672,81,81,6
30655392,64,36,6
30674116,9,9,6
30690752,1,1,6
30707392,1,0,6
30724036,0,1,6
30740684,9,1,6
30757320,0,1,6
30773956,81,4,6
30791632,100,4,6
30810364,36,0,6
30828040,196,0,6
30846756,196,36,6
30866516,25,25,6
30885240,4,4,6
30901880,64,1,6
30919552,100,9,6
30938276,0,49,6
30955944,324,4,6
30974672,121,121,6
30995476,49,4,6
31013172,0,4,6
31029800,36,9,6
31047472,4,16,6
31065152,4,16,6
31082840,256,49,6
31102596,576,1,6
31121308,16,36,6
31140044,0,64,6
31157708,256,169,6
31178512,196,4,6
31197232,25,0,6
31214920,0,1,6
31231556,225,16,6
31251316,625,4,6
31270040,441,16,6
31289792,169,9,6
31308516,81,16,6
31327228,196,36,6
31347000,100,16,6
31366744,144,36,6
31386516,9,9,6
31403156,25,4,6
31420836,144,0,6
31439548,36,4,6
31457220,81,9,6
31474924,81,0,6
31492596,225,1,6
31511312,484,49,6
31531076,1,16,6
31548760,121,9,6
31567472,0,1,6
31584112,25,1,6
31601796,9,100,6
31620528,49,16,6
31639228,121,25,6
31658996,16,9,6
31676680,4,9,6
31693316,121,0,6
31712036,9,1,6
31728680,484,9,6
31747400,289,81,6
31767160,64,1,6
31784836,16,9,6
31802520,9,49,6
31820204,169,9,6
31838908,9,36,6
31856572,400,1,6
31875304,4,0,6
31891948,3025,0,6
31911712,529,100,6
31932524,25,4,6
31950196,16,25,6
31968920,256,4,6
31987620,81,16,6
32006364,0,0,6
32022992,49,25,6
32041716,484,9,6
32060448,484,4,6
32079156,36,1,6
32096824,1,25,6
32114508,144,4,6
32133248,49,1,6
32150920,0,4,6
32167556,4,9,6
32184200,25,64,6
32202920,900,64,6
32222672,324,81,6
32242436,361,1,6
32261164,729,64,6
32280924,1,0,6
32297544,1024,81,6
32318340,784,49,6
32338108,1,4,6
32354760,324,16,6
32374516,1444,64,6
32395316,2025,25,6
32416112,1369,16,6
32436920,49,25,6
32455628,36,1,6
32473320,144,0,6
32492036,289,0,6
32510752,196,0,6
32529484,100,4,6
32548208,1,1,6
32564824,25,49,6
32583544,81,0,6
32601236,49,9,6
32618904,841,16,6
32638664,3844,144,6
32660516,1681,324,6
32682356,225,100,6
32703148,841,16,6
32722912,1600,9,6
32742680,1089,4,6
32762428,81,36,6
32781156,49,16,6
32799880,49,1,6
32817556,4,1,6
32834188,900,9,6
32852908,2401,36,6
32873724,1369,25,6
32894512,25,16,6
32913240,961,1,6
32931948,4624,36,6
32952760,3364,196,6
32974600,361,81,6
32994372,64,4,6
33012040,324,4,6
33030752,2116,49,6
33051548,784,121,6
33072368,144,1,6
33091072,144,1,6
33109792,100,25,6
33129572,49,1,6
33147244,36,4,6
33164916,289,0,6
33183632,36,9,6
33201320,441,1,6
33220036,49,16,6
33238748,9,16,6
33256432,49,9,6
33274116,25,4,6
33291796,36,4,6
33309476,9,0,6
33326124,100,1,6
33344828,1600,4,6
33364584,4225,225,6
33386428,3481,256,6
33408268,529,100,6
33429056,1089,36,6
33449868,2209,121,6
33471712,400,121,6
33492516,289,9,6
33511228,324,64,6
33530996,625,16,6
33550764,36,1,6
33568432,64,1,6
33586104,361,1,6
33604840,16,16,6
33623552,676,4,6
33642264,961,0,6
33661000,289,4,6
33679724,36,9,6
33697388,121,1,6
33716108,4096,49,6
33736912,8281,529,6
33758752,4225,361,6
33780580,361,36,6
33800356,729,36,6
33820108,1764,169,6
33841932,4225,196,6
33863792,5476,324,6
33885644,1,169,6
33904348,1444,121,6
33926196,81,81,6
33944912,256,64,6
33964664,676,1,6
33983384,5184,169,6
34005228,121,16,6
34024996,1521,81,6
34045800,1,1,6
34062440,841,100,6
34083240,49,0,6
34100916,64,4,6
34118572,729,196,6
34139392,1521,0,6
34159140,26896,900,6
34182024,13225,841,6
34204920,144,9,6
34223628,2704,81,6
34244420,289,121,6
34265240,2401,121,6
34287064,400,25,6
34306828,81,36,6
34325552,1156,9,6
34345312,64,49,6
34364016,1444,16,6
34384820,4356,196,6
34406668,36,36,6
34425376,4096,441,6
34447212,81,144,6
34466992,6561,289,6
34488836,121,49,6
34508568,5041,361,6
34530408,3600,0,6
34550176,7396,676,6
34572024,784,1,6
34590748,3600,196,6
34612592,1681,64,6
34633392,256,36,6
34653136,144,256,6
34673944,1444,16,6
34694748,25,4,6
34712428,4761,9,6
34732208,1600,484,6
34754024,2209,1,6
34773780,9409,1296,6
34796668,4489,484,6
34818520,729,1,6
34837248,9,81,6
34854904,784,1,6
34873636,196,169,6
34894412,625,0,6
34913156,1936,0,6
34932928,64,169,6
34952688,1,1,6
34969308,625,1,6
34988024,361,81,6
35007804,25,1,6
35025476,36,121,6
35045240,121,1,6
35063960,324,100,6
35084760,1,0,6
35101400,625,9,6
35120108,900,9,6
35138836,441,144,6
35159624,484,49,6
35179388,625,100,6
35200196,900,4,6
35218912,2704,289,6
35240756,961,25,6
35260516,64,1,6
35278200,625,4,6
35296920,64,4,6
35314592,1,4,6
35331236,25,16,6
35349948,324,1,6
35368676,64,16,6
35387380,49,4,6
35405076,1681,0,6
35424836,729,121,6
35445648,16,0,6
35463332,1,36,6
35481000,9,49,6
35498668,0,4,6
35515304,100,9,6
35534036,441,0,6
35552752,169,16,6
35572512,36,36,6
35591244,1,9,6
35607880,169,4,6
35626596,81,4,6
35644264,576,9,6
35662992,1936,36,6
35683796,64,16,6
35702520,0,0,6
35719140,361,9,6
35737880,16,9,6
35755568,144,9,6
35774276,36,1,6
35791968,4,0,6
35808604,36,1,6
35826280,25,0,6
35843952,144,9,6
35862680,361,0,6
35881396,9,1,6
35898036,49,9,6
35915712,484,25,6
35935468,676,25,6
35955236,2809,81,6
35976024,2809,225,6
35997872,0,49,6
36015548,1600,64,6
36036344,225,49,6
36056120,1681,25,6
36076916,1156,64,6
36097716,0,4,6
36114348,256,25,6
36134120,1024,81,6
36154928,49,9,6
36172604,36,4,6
36190284,121,16,6
36210048,16,1,6
36227716,1296,81,6
36248512,676,49,6
36268280,256,9,6
36287000,1849,4,6
36306740,121,9,6
36325476,484,0,6
36344192,169,25,6
36363956,144,36,6
36383688,1024,25,6
36404512,2704,121,6
36426344,900,144,6
36447156,9,4,6
36463808,169,1,6
36482512,225,9,6
36501232,2809,121,6
36523084,625,196,6
36543884,1,25,6
36561552,49,9,6
36579228,9,16,6
36596916,225,0,6
36615636,529,36,6
36635392,289,9,6
36654120,1156,100,6
36675968,441,9,6
36694668,484,4,6
36713384,576,64,6
36733152,81,36,6
36751864,225,81,6
36771640,1,1,6
36788280,1,16,6
36805960,196,9,6
36824680,100,9,6
36843400,36,49,6
36862128,225,0,6
36880832,121,4,6
36899548,0,4,6
36916192,16,16,6
36934936,196,4,6
36953644,256,9,6
36972356,196,4,6
36991076,64,1,6
37008752,784,1,6
37027472,1600,121,6
37049308,16,49,6
37068048,841,49,6
37087792,289,25,6
37107564,100,4,6
37126288,484,1,6
37145012,9,1,6
37161628,25,9,6
37179304,361,1,6
37198040,225,25,6
37217812,196,9,6
37236524,576,25,6
37256284,400,49,6
37276036,576,25,6
37295796,169,64,6
37315540,100,16,6
37335316,196,36,6
37355084,81,4,6
37372756,49,9,6
37390452,225,4,6
37409156,25,0,6
37426832,0,0,6
37443472,25,0,6
37461156,361,9,6
37479876,324,49,6
37499644,4,0,6
37516272,4,1,6
37532928,576,49,6
37552676,625,36,6
37572440,9,1,6
37589076,529,9,6
37607796,361,49,6
37627552,529,16,6
37647304,1296,121,6
37669156,1444,9,6
37688924,25,36,6
37707632,1,25,6
37725316,841,1,6
37744056,784,81,6
37763800,441,81,6
37783548,100,9,6
37802280,196,4,6
37820984,0,16,6
37838672,1296,9,6
37858432,2116,169,6
37880284,1681,81,6
37901076,196,49,6
37920836,225,4,6
37939552,625,36,6
37959312,484,64,6
37979072,361,16,6
37998840,324,36,6
38018604,81,36,6
38037320,9,0,6
38053968,9,1,6
38070600,0,0,6
38087228,64,4,6
38104912,196,25,6
38124672,196,9,6
38143408,49,4,6
38161072,36,4,6
38178744,441,16,6
38198520,400,49,6
38218280,676,16,6
38238024,1024,49,6
38258840,576,100,6
38279640,529,25,6
38299396,9,9,6
38316028,121,0,6
38334752,361,25,6
38354508,625,64,6
38374260,625,4,6
38392988,1225,81,6
38413784,676,0,6
38432504,1444,121,6
38454364,36,1,6
38472052,144,4,6
38490756,9,16,6
38508428,1024,4,6
38528192,324,0,6
38546912,576,16,6
38566668,625,64,6
38586448,9,49,6
38604124,4,16,6
38621788,25,9,6
38639480,1,25,6
38657160,144,1,6
38675876,400,4,6
38694592,64,1,6
38712268,9,16,6
38729960,9,0,6
38746584,49,16,6
38765312,64,0,6
38782996,9,0,6
38799620,729,64,6
38819380,1024,121,6
38841240,4,4,6
38857892,0,1,6
38874520,529,1,6
38893224,2704,16,6
38914024,3025,121,6
38935884,100,100,6
38956676,2025,100,6
38978500,0,169,6
38997236,2116,25,6
39018036,841,64,6
39037792,256,1,6
39056516,324,4,6
39075232,1681,64,6
39096012,2601,289,6
39117876,225,49,6
39137636,9,0,6
39154268,5776,225,6
39176100,4624,529,6
39197960,576,100,6
39218736,16,9,6
39236416,196,0,6
39255140,225,64,6
39274908,1369,64,6
39295704,529,36,6
39315484,49,16,6
39334200,121,9,6
39352912,576,0,6
39371628,121,1,6
39390364,1,4,6
39406984,144,16,6
39426744,25,25,6
39445460,36,0,6
39463156,324,0,6
39481872,900,36,6
39501636,361,4,6
39520352,225,81,6
39540108,676,1,6
39558828,4356,289,6
39580676,2304,256,6
39602520,144,36,6
39622268,1764,16,6
39643060,841,81,6
39662832,25,36,6
39681560,400,9,6
39700268,16,16,6
39718996,256,1,6
39737724,9,4,6
39754348,144,49,6
39774112,256,0,6
39792836,4,9,6
39809464,1089,144,6
39831324,196,81,6
39851064,2401,64,6
39871880,6084,121,6
39893708,16,25,6
39912416,1764,4,6
39932212,0,1,6
39948840,256,9,6
39967548,16,0,6
39985240,529,0,6
40003948,841,25,6
40023704,8464,225,6
40045548,1089,289,6
40067404,900,4,2
40086116,1156,36,2
40106912,961,9,2
40125636,1089,81,2
40146432,2116,100,2
40168268,7569,144,2
40190104,6561,529,2
40211936,2401,256,2
40233784,3721,81,2
40254592,4900,400,2
40276416,7056,441,2
40298272,1156,169,2
40320116,729,1,2
40338836,1156,49,2
40359616,625,36,2
40379384,289,64,2
40399164,100,0,2
40417868,400,64,2
40437644,4,1,2
40454284,225,1,2
40472996,676,64,2
40492752,900,25,2
40512508,289,0,2
40531232,2209,64,2
40552024,8281,400,2
40573848,4489,324,2
40595700,3364,100,2
40617544,100,144,2
40638348,1369,4,2
40658112,169,169,2
40678924,169,64,2
40698680,1,49,2
40716364,4,36,2
40734036,9,1,2
40750676,64,16,2
40769392,9,36,2
40787080,100,4,2
40805800,900,121,2
40826584,1369,9,2
40846352,1600,16,2
40867164,441,144,2
40887956,49,9,2
40905624,2209,0,2
40925396,1764,144,2
40947248,961,4,2
40965956,5184,625,2
40987800,3249,196,2
41009628,625,16,2
41029388,196,36,2
41049156,1521,16,2
41069956,2116,196,2
41091796,1225,9,2
41111548,1,1,2
41128180,4,16,2
41145868,625,9,2
41164584,256,0,2
41183312,121,0,2
41202040,169,49,2
41221792,36,4,2
41239468,256,0,2
41258200,1089,144,2
41280040,529,100,2
41300828,81,0,2
41318532,400,36,2
41338276,784,121,2
41359072,144,4,2
41377788,49,0,2
41395464,2916,100,2
41417296,1936,196,2
41439136,1369,4,2
41458904,2601,121,2
41480740,1296,4,2
41500508,49,16,2
41519244,1369,1,2
41538988,256,196,2
41559788,256,0,2
41578520,1936,121,2
41600368,4,1,2
41616992,1600,121,2
41638832,324,25,2
41658604,0,0,2
41675232,16,49,2
41693956,16,9,2
41711636,4,0,2
41728276,16,16,2
41747004,1,1,2
41763624,9,16,2
41781312,9,4,2
41797952,49,0,2
41815628,49,1,2
41833312,16,4,2
41851008,225,1,2
41869720,729,36,2
41889472,784,36,2
41909224,1024,1,2
41928992,841,9,2
41947708,196,16,2
41967468,4,4,2
41984124,16,1,2
42001796,25,1,2
42019468,0,9,2
42036116,121,0,2
42054844,196,1,2
42073556,36,1,2
42091236,4,1,2
42107876,36,1,2
42125560,4,9,2
42142204,1,1,2
42158840,25,1,2
42176508,1,4,2
42193156,9,1,2
42209788,1,1,2
42226432,16,4,2
42244128,100,0,2
42262844,4,4,2
42279472,16,0,2
42297148,64,0,2
42314840,49,9,2
42332512,196,0,2
42351228,144,36,2
42370992,4,0,2
42387640,16,1,2
42405312,361,9,2
42424032,324,4,2
42442760,4,4,2
42459404,25,0,2
42477076,1,1,2
42493708,36,0,2
42511400,81,0,2
42529076,9,0,2
42545716,4,9,2
42562348,0,4,2
42578996,1,4,2
42595644,36,0,2
42613316,225,9,2
42632028,100,1,2
42650756,1,1,2
42667392,49,0,2
42685080,441,16,2
42704832,121,16,2
42724600,36,1,2
42742268,81,16,2
42761000,4,16,2
42778672,64,1,2
42796356,36,1,2
42814032,0,1,2
42830668,16,1,2
42848368,36,16,2
42867076,81,4,2
42884744,529,16,2
42904500,324,64,2
42924288,0,9,2
42940908,121,0,2
42959628,36,0,2
42977324,100,4,2
42996044,576,16,2
43015796,289,9,2
43034520,16,4,2
43052204,4,1,2
43068840,9,0,2
43085468,16,0,2
43103148,4,9,2
43119796,100,0,2
43138520,64,9,2
43156200,1,1,2
43172820,16,4,2
43190516,0,1,2
43207156,49,9,2
43224840,1,4,2
43241464,16,4,2
43259156,16,0,2
43276836,49,1,2
43294512,0,1,2
43311164,0,1,2
43327796,256,0,2
43346516,441,9,2
43365232,121,4,2
43383960,0,0,2
43400596,16,4,2
43418276,144,1,2
43436988,64,9,2
43454676,49,16,2
43473384,100,9,2
43492116,1,16,2
43509808,121,4,2
43528520,289,0,2
43547236,81,9,2
43564920,25,4,2
43582608,196,0,2
43601320,256,4,2
43620036,9,4,2
43636660,0,1,2
43653324,1,0,2
43669948,25,0,2
43687632,9,4,2
43704272,49,0,2
43721956,36,4,2
43739632,0,25,2
43757308,81,0,2
43775004,144,9,2
43793724,4,4,2
43810356,1,0,2
43826992,100,1,2
43845720,169,16,2
43865480,4,25,2
43883156,256,0,2
43901864,324,9,2
43920600,49,16,2
43939312,49,0,2
43956996,100,4,2
43975728,1,1,2
43992372,4,0,2
44009008,81,1,2
44026668,49,4,2
44044364,0,0,2
44061004,1,0,2
44077644,9,9,2
44094272,256,9,2
44113000,361,36,2
44132768,196,1,2
44151468,49,1,2
44169148,49,4,2
44186840,81,1,2
44204516,16,1,2
44222192,0,1,2
44238824,1,0,2
44255484,9,0,2
44272112,4,0,2
44288744,256,4,2
44307484,196,4,2
44326200,4,4,2
44342832,81,1,2
44360516,4,16,2
44378200,169,0,2
44396924,1,4,2
44413560,144,0,2
44432280,289,9,2
44451008,36,9,2
44468672,36,0,2
44486352,25,0,2
44504028,9,0,2
44520680,64,4,2
44538360,625,4,2
44557076,441,16,2
44576836,0,4,2
44593484,289,9,2
44612192,64,16,2
44630908,256,0,2
44649628,841,16,2
44669400,144,16,2
44689152,36,0,2
44706832,16,0,2
44724516,49,0,2
44742200,121,9,2
44760928,25,1,2
44778600,49,4,2
44796276,100,0,2
44815000,64,4,2
44832668,25,0,2
44850356,9,1,2
44867000,144,1,2
44885716,121,9,2
44904428,4,0,2
44921076,144,4,2
44939800,169,4,2
44958512,100,4,2
44977240,196,16,2
44997004,225,16,2
45016752,16,0,2
45034420,144,0,2
45053160,25,0,2
45070836,36,1,2
45088520,81,4,2
45106196,196,1,2
45124920,676,16,2
45144668,16,16,2
45163400,1,1,2
45180036,9,0,2
45196672,36,4,2
45214360,25,1,2
45232032,81,1,2
45249728,144,1,2
45268428,64,9,2
45286112,81,4,2
45303784,25,1,2
45321476,49,0,2
45339168,121,0,2
45357872,196,0,2
45376588,484,0,2
45395312,784,16,2
45415068,324,36,2
45434832,49,1,2
45452516,36,0,2
45470192,100,4,2
45488912,169,0,2
45507644,169,1,2
45526368,169,9,2
45545080,0,1,2
45561708,64,1,2
45579392,0,0,2
45596044,81,1,2
45613716,225,1,2
45632428,9,1,2
45649072,81,1,2
45666748,4,9,2
45683388,0,4,2
45700024,9,0,2
45716680,16,0,2
45734348,25,0,2
45752036,49,1,2
45769712,64,1,2
45787404,64,9,2
45805076,25,4,2
45822752,225,4,2
45841484,81,16,2
45860204,9,4,2
45876832,16,1,2
45894512,0,0,2
45911164,16,4,2
45928836,225,16,2
45948596,256,4,2
45967312,1,1,2
45983960,81,16,2
46002676,196,16,2
46022432,121,9,2
46041164,16,0,2
46058844,16,4,2
46076504,16,0,2
46094200,49,4,2
46111884,36,4,2
46129556,0,0,2
46146188,9,0,2
46162832,25,1,2
46180520,121,1,2
46199236,49,1,2
46216920,49,0,2
46234588,100,4,2
46253324,9,4,2
46269948,1,1,2
46286592,1,4,2
46303228,121,1,2
46321956,441,16,2
46341712,361,25,2
46361472,225,16,2
46381236,9,4,2
46397884,0,0,2
46414516,16,0,2
46432188,16,0,2
46449876,49,4,2
46467556,4,9,2
46484192,64,0,2
46501868,256,4,2
46520596,81,1,2
46538292,4,1,2
46554916,64,1,2
46572604,100,1,2
46591316,81,0,2
46608992,36,1,2
46626672,0,1,2
46643320,36,0,2
46661004,9,16,2
46678680,16,0,2
46696352,144,4,2
46715076,169,9,2
46733788,49,4,2
46751476,1,0,2
46768108,0,0,2
46784764,25,1,2
46802436,0,4,2
46819076,16,1,2
46836760,169,0,2
46855484,256,9,2
46874192,196,16,2
46893948,400,16,2
46913712,81,16,2
46932440,121,0,2
46951156,289,9,2
46969880,225,1,2
46988604,100,4,2
47007308,16,1,2
47025000,0,9,2
47041640,0,0,2
47058296,1,1,2
47074912,16,1,2
47092604,49,1,2
47110280,121,0,2
47129000,324,1,2
47147708,144,9,2
47166436,1,1,2
47183072,36,0,2
47200764,4,16,2
47218436,49,1,2
47236128,4,1,2
47252760,36,9,2
47270444,0,0,2
47287076,16,9,2
47304764,49,0,2
47322440,36,0,2
47340124,1,1,2
47356752,121,0,2
47375484,169,9,2
47394200,1,4,2
47410832,64,1,2
47428512,16,0,2
47446200,256,9,2
47464912,121,4,2
47483628,25,1,2
47501300,9,1,2
47517960,9,1,2
47534596,64,9,2
47552276,1,9,2
47568920,324,0,2
47587640,225,25,2
47607388,121,1,2
47626116,0,0,2
47642756,169,0,2
47661484,16,16,2
47680200,25,1,2
47697856,36,4,2
47715556,49,1,2
47733232,144,1,2
47751948,900,16,2
47771716,256,36,2
47791488,9,0,2
47808112,1,4,2
47824752,256,1,2
47843476,225,9,2
47862188,16,1,2
47879872,16,0,2
47897548,100,1,2
47916284,25,16,2
47935012,1,1,2
47951640,49,1,2
47969320,64,9,2
47986996,25,9,2
48004664,16,1,2
48022356,16,1,2
48040048,36,4,2
48057716,1,0,2
48074352,36,1,2
48092036,196,1,2
48110756,625,9,2
48129476,324,25,2
48149240,9,0,2
48165872,576,25,2
48185636,576,9,2
48204348,0,4,2
48220988,100,1,2
48239720,169,4,2
48258436,361,1,2
48277160,100,25,2
48296908,25,4,2
48314608,64,4,2
48332276,1,25,2
48349964,1,1,2
48366596,81,1,2
48384284,225,25,2
48404028,9,4,2
48420668,49,0,2
48438352,441,16,2
48458116,121,16,2
48477884,25,4,2
48495552,100,9,2
48514272,81,64,2
48532992,100,4,2
48551724,1,9,2
48568360,169,1,2
48587080,49,9,2
48604760,1,1,2
48621396,121,4,2
48640120,100,9,2
48658852,1,0,2
48675476,49,0,2
48693148,144,0,2
48711876,1,9,2
48728504,400,1,2
48747228,256,36,2
48766996,36,1,2
48784680,49,0,2
48802360,256,16,2
48822116,256,4,2
48840844,1,1,2
48857484,9,0,2
48874124,121,1,2
48892836,64,4,2
48910516,144,0,2
48929232,121,9,2
48947952,49,4,2
48965640,9,0,2
48982288,100,4,2
49001000,169,16,2
49020764,36,4,2
49038440,0,4,2
49055076,81,4,2
49072756,169,4,2
49091472,361,4,2
49110200,81,9,2
49127864,196,0,2
49146596,400,25,2
49166360,64,36,2
49185080,4,4,2
49201720,36,0,2
49219400,196,1,2
49238116,256,16,2
49257888,1,1,2
49274508,529,4,2
49293224,256,9,2
49311968,64,4,2
49329640,64,4,2
49347316,1,4,2
49363948,64,1,2
49381636,225,4,2
49400352,81,25,2
49419076,16,0,2
49436764,4,1,2
49453400,36,0,2
49471076,0,1,2
49487708,49,1,2
49505400,81,1,2
49523080,81,1,2
49540752,4,0,2
49557384,9,0,2
49574040,16,0,2
49591716,169,0,2
49610436,64,1,2
49628112,81,4,2
49645796,81,1,2
49663472,0,0,2
49680116,144,9,2
49698840,324,25,2
49718596,4,1,2
49735228,25,4,2
49752916,16,1,2
49770600,49,0,2
49788276,64,1,2
49805964,36,1,2
49823632,0,0,2
49840288,36,4,2
49857960,225,16,2
49877712,144,4,2
49896432,1,1,2
49913080,1,0,2
49929720,9,1,2
49946360,36,1,2
49964040,81,1,2
49981716,400,9,2
50000436,121,9,2
50019156,9,0,2
50035796,169,1,2
50054524,4,4,7
50071160,64,1,7
50088844,9,9,7
50105484,0,0,7
50122124,25,1,7
50139792,1,0,7
50156428,81,4,7
50174120,36,9,7
50191792,9,0,7
50208440,1,0,7
50225072,49,1,7
50242756,196,9,7
50261468,25,9,7
50279148,4,9,7
50295792,36,1,7
50313480,64,4,7
50331164,9,1,7
50347788,0,4,7
50364440,0,1,7
50381080,0,1,7
50397720,0,0,7
50414356,4,1,7
50431000,0,0,7
50447636,4,1,7
50464284,1,4,7
50480920,49,1,7
50498596,144,4,7
50517316,121,9,7
50536028,100,1,7
50554756,16,4,7
50572440,9,4,7
50589076,64,9,7
50606748,25,1,7
50624424,4,4,7
50641076,4,1,7
50657712,36,0,7
50675388,169,9,7
50694104,49,9,7
50711800,0,0,7
50728440,64,1,7
50746112,4,0,7
50762756,64,0,7
50780432,49,0,7
50798132,4,9,7
50814744,441,0,7
50833480,400,25,7
50853244,100,4,7
50871948,4,0,7
50888596,1,1,7
50905240,64,0,7
50922936,4,1,7
50939552,36,4,7
50957228,25,9,7
50974920,25,0,7
50992604,144,4,7
51011320,36,1,7
51029000,49,1,7
51046676,361,9,7
51065396,169,9,7
51084112,16,0,7
51101804,25,0,7
51119476,100,0,7
51138184,625,9,7
51156900,144,16,7
51176684,1,0,7
51193316,1,1,7
51209952,4,1,7
51226592,49,1,7
51244272,49,0,7
51261948,25,0,7
51279632,16,0,7
51297316,0,1,7
51313952,4,0,7
51330600,4,0,7
51347232,36,16,7
51365952,9,1,7
51382592,0,1,7
51399236,9,1,7
51415868,0,0,7
51432520,0,4,7
51449156,36,0,7
51466840,1,1,7
51483472,100,0,7
51502196,169,0,7
51520916,64,0,7
51538592,25,0,7
51556268,16,1,7
51573960,81,0,7
51591636,324,9,7
51610352,196,16,7
51630124,100,4,7
51648836,36,9,7
51666508,16,1,7
51684188,9,1,7
51700840,4,0,7
51717480,49,1,7
51735156,9,4,7
51751788,25,1,7
51769484,25,4,7
51787156,0,1,7
51803788,1,1,7
51820424,9,0,7
51837084,4,1,7
51853720,9,0,7
51870356,0,0,7
51887000,9,0,7
51903636,1,0,7
51920280,9,1,7
51936908,4,1,7
51953556,25,1,7
51971244,1,0,7
51987880,16,9,7
52005560,49,4,7
52023228,64,9,7
52040916,49,4,7
52058600,49,9,7
52076276,9,1,7
52092900,49,16,7
52111644,9,0,7
52128284,9,1,7
52144916,25,1,7
52162596,1,1,7
52179248,0,0,7
52195876,0,0,7
52212516,1,4,7
52229152,9,0,7
52245800,0,4,7
52262444,25,0,7
52280104,16,25,7
52298832,0,64,7
52316516,9,9,7
52333156,9,1,7
52349792,0,9,7
52366436,1,1,7
52383080,0,1,7
52399712,4,4,7
52416360,1,1,7
52433008,1,0,7
52449636,4,4,7
52466268,0,0,7
52482908,0,0,7
52499556,0,4,7
52516196,1,1,7
52532828,0,0,7
52549476,0,0,7
52566116,0,4,7
52582756,0,4,7
52599396,1,0,7
52616032,0,1,7
52632676,0,1,7
52649312,1,1,7
52665956,1,0,7
52682584,0,0,7
52699240,0,1,7
52715888,1,1,7
52732508,4,1,7
52749148,1,4,7
52765804,1,0,7
52782444,0,0,7
52799072,0,1,7
52815712,0,1,7
52832352,0,0,7
52848996,0,4,7
52865636,0,0,7
52882276,0,0,7
52898920,0,1,7
52915556,0,0,7
52932196,1,0,7
52948832,0,0,7
52965476,0,1,7
52982112,1,0,7
52998760,1,1,7
53015388,0,1,7
53032032,0,0,7
53048676,1,1,7
53065316,0,0,7
53081956,0,0,7
53098596,0,0,7
53115240,1,1,7
53131868,0,0,7
53148512,4,0,7
53165164,4,0,7
53181804,1,0,7
53198440,1,0,7
53215068,0,0,7
53231720,0,1,7
53248356,0,0,7
53264992,0,0,7
53281640,1,0,7
53298280,4,1,7
53314920,0,1,7
53331548,0,0,7
53348192,0,1,7
53364836,0,0,7
53381488,0,1,7
53398112,0,4,7
53414756,0,1,7
53431400,0,9,7
53448036,0,4,7
53464680,0,0,7
53481316,0,0,7
53497960,0,1,7
53514596,0,0,7
53531228,0,0,7
53547868,0,1,7
53564528,1,0,7
53581164,0,0,7
53597792,0,4,7
53614436,1,0,7
53631072,25,0,7
53648756,49,1,7
53666428,16,9,7
53684116,0,0,7
53700756,1,1,7
53717400,0,9,7
53734028,1,0,7
53750668,1,0,7
53767312,0,1,7
53783956,0,1,7
53800592,0,0,7
53817240,1,1,7
53833876,0,0,7
53850512,0,1,7
53867152,1,4,7
53883796,0,0,7
53900440,0,0,7
53917076,1,1,7
53933708,0,0,7
53950356,0,0,7
53967000,0,0,7
53983644,1,1,7
54000272,0,0,7
54016916,0,1,7
54033556,0,1,7
54050196,0,0,7
54066824,0,1,7
54083476,0,0,7
54100120,0,1,7
54116760,1,4,7
54133388,0,0,7
54150028,0,1,7
54166680,9,4,7
54183324,1,0,7
54199952,0,0,7
54216592,0,4,7
54233236,1,0,7
54249884,1,0,7
54266516,0,1,7
54283148,4,0,7
54299796,4,0,7
54316436,0,0,7
54333072,0,1,7
54349712,0,1,7
54366356,16,4,7
54384032,9,0,7
54400668,0,4,7
54417312,0,1,7
54433960,0,1,7
54450596,0,4,7
54467240,0,1,7
54483872,0,1,7
54500516,0,0,7
54517160,0,0,7
54533800,4,1,7
54550432,0,1,7
54567076,1,1,7
54583716,0,4,7
54600356,1,0,7
54616996,1,1,7
54633636,0,1,7
54650276,0,0,7
54666912,0,0,7
54683544,0,1,7
54700196,0,0,7
54716836,0,1,7
54733476,0,0,7
54750112,1,4,7
54766756,0,1,7
54783404,1,0,7
54800036,1,0,7
54816668,25,0,7
54834356,9,0,7
54850988,0,0,7
54867628,0,0,7
54884272,1,1,7
54900916,0,0,7
54917556,4,0,7
54934188,0,1,7
54950828,0,0,7
54967472,0,4,7
54984112,0,9,7
55000744,0,0,7
55017380,4,0,7
55034044,16,1,7
55051708,0,0,7
55068348,0,1,7
55084992,0,1,7
55101636,0,1,7
55118276,0,0,7
55134912,0,4,7
55151544,0,1,7
55168200,1,4,7
55184832,0,4,7
55201476,4,0,7
55218112,1,1,7
55234756,0,0,7
55251388,1,0,7
55268040,4,1,7
55284660,0,1,7
55301316,0,1,7
55317960,0,1,7
55334596,0,1,7
55351224,0,0,7
55367876,0,1,7
55384508,0,1,7
55401148,0,0,7
55417792,0,0,7
55434440,1,1,7
55451068,0,0,7
55467708,1,1,7
55484340,4,1,7
55500992,1,4,7
55517636,1,0,7
55534276,1,0,7
55550900,0,0,7
55567556,0,0,7
55584200,1,0,7
55600840,1,1,7
55617472,0,1,7
55634120,0,1,7
55650748,0,1,7
55667396,0,0,7
55684032,0,1,7
55700684,1,0,7
55717316,0,1,7
55733956,1,0,7
55750592,0,1,7
55767244,0,0,7
55783864,1,0,7
55800508,4,0,7
55817156,4,1,7
55833800,0,1,7
55850428,0,0,7
55867072,1,1,7
55883712,4,1,7
55900364,0,0,7
55916996,1,4,7
55933640,1,1,7
55950260,0,0,7
55966916,0,4,7
55983548,0,1,7
56000192,0,4,7
56016828,0,0,7
56033476,0,1,7
56050108,0,0,7
56066752,0,1,7
56083380,0,0,7
56100036,0,4,7
56116672,0,1,7
56133320,1,1,7
56149944,0,1,7
56166596,0,1,7
56183224,0,0,7
56199868,0,1,7
56216504,0,1,7
56233156,0,0,7
56249788,1,1,7
56266428,0,1,7
56283060,0,0,7
56299720,0,1,7
56316356,0,0,7
56332988,0,0,7
56349624,0,0,7
56366288,1,4,7
56382908,0,1,7
56399552,0,0,7
56416184,0,1,7
56432836,0,0,7
56449468,0,1,7
56466112,0,1,7
56482744,0,1,7
56499400,0,1,7
56516032,0,0,7
56532680,1,0,7
56549304,0,1,7
56565952,0,0,7
56582596,0,0,7
56599236,1,0,7
56615872,0,4,7
56632516,0,1,7
56649148,0,0,7
56665788,0,0,7
56682428,0,0,7
56699080,1,0,7
56715716,1,0,7
56732348,0,0,7
56748980,1,0,7
56765636,0,0,7
56782268,4,4,7
56798920,4,9,7
56815540,9,0,7
56832192,4,0,7
56848832,0,1,7
56865472,0,1,7
56882100,0,0,7
56898752,0,1,7
56915400,1,1,7
56932036,1,1,7
56948660,0,0,7
56965320,0,4,7
56981956,1,0,7
56998596,0,1,7
57015232,0,0,7
57031876,0,0,7
57048512,0,4,7
57065148,0,0,7
57081780,0,0,7
57098440,0,9,7
57115072,0,1,7
57131724,1,0,7
57148356,0,1,7
57164996,0,0,7
57181636,1,0,7
57198268,0,1,7
57214912,0,0,7
57231552,0,0,7
57248196,1,0,7
57264828,0,1,7
57281468,0,4,7
57298120,0,4,7
57314748,0,1,7
57331388,0,1,7
57348024,0,4,7
57364676,0,0,7
57381308,0,1,7
57397960,1,4,7
57414584,0,1,7
57431240,0,1,7
57447880,1,4,7
57464516,1,0,7
57481144,0,1,7
57497796,0,1,7
57514424,0,0,7
57531076,1,0,7
57547704,0,0,7
57564360,1,1,7
57580996,0,0,7
57597636,0,1,7
57614272,1,0,7
57630920,1,0,7
57647544,0,0,7
57664192,0,1,7
57680820,1,1,7
57697476,0,4,7
57714120,0,1,7
57730752,0,0,7
57747384,1,0,7
57764036,0,0,7
57780664,0,4,7
57797304,0,16,7
57814992,1,0,7
57831644,1,0,7
57848276,0,1,7
57864908,1,0,7
57881544,0,4,7
57898196,0,1,7
57914832,0,0,7
57931476,1,1,7
57948104,0,4,7
57964760,9,0,7
57981396,1,0,7
57998036,0,1,7
58014668,0,0,7
58031316,0,4,7
58047960,1,9,7
58064588,0,1,7
58081220,0,0,7
58097876,1,0,7
58114516,0,1,7
58131152,0,1,7
58147796,1,16,7
58165476,0,0,7
58182108,0,0,7
58198748,0,1,7
58215392,4,1,7
58232040,0,1,7
58248668,0,1,7
58265312,0,1,7
58281952,1,1,7
58298596,0,0,7
58315232,4,0,7
58331880,0,1,7
58348512,0,0,7
58365156,0,0,7
58381796,1,0,7
58398436,0,1,7
58415064,1,0,7
58431724,1,0,7
58448348,0,1,7
58464996,1,0,7
58481632,1,1,7
58498280,4,1,7
58514920,0,1,7
58531548,0,1,7
58548180,0,0,7
58564836,0,0,7
58581468,0,4,7
58598112,0,4,7
58614752,0,4,7
58631396,0,4,7
58648028,0,0,7
58664672,0,0,7
58681304,0,1,7
58697956,0,0,7
58714596,0,4,7
58731236,0,0,7
58747872,0,0,7
58764520,0,1,7
58781148,0,1,7
58797788,0,0,7
58814428,1,0,7
58831088,4,1,7
58847716,4,0,7
58864360,1,1,7
58880980,0,0,7
58897636,0,4,7
58914268,0,4,7
58930916,4,0,7
58947552,0,1,7
58964212,1,9,7
58980828,0,0,7
58997472,1,0,7
59014116,0,0,7
59030768,0,1,7
59047396,0,1,7
59064040,0,4,7
59080668,0,1,7
59097312,0,0,7
59113956,0,1,7
59130588,0,1,7
59147224,0,0,7
59163880,0,1,7
59180508,1,0,7
59197156,1,0,7
59213784,0,1,7
59230436,0,1,7
59247072,0,0,7
59263708,1,9,7
59280344,0,1,7
59297004,4,0,7
59313636,1,0,7
59330276,1,0,7
59346912,0,0,7
59363556,0,0,7
59380188,0,0,7
59396824,0,4,7
59413468,1,1,7
59430116,1,1,7
59446756,0,0,7
59463388,0,1,7
59480024,1,1,7
59496676,0,1,7
59513308,0,1,7
59529956,0,0,7
59546588,0,0,7
59563240,0,4,7
59579868,0,0,7
59596512,0,0,7
59613152,0,0,7
59629796,0,1,7
59646436,0,0,7
59663072,1,4,7
59679704,0,0,7
59696360,0,1,7
59712996,0,1,7
59729636,0,0,7
59746260,0,0,7
59762920,0,1,7
59779556,0,0,7
59796192,0,0,7
59812820,0,1,7
59829476,0,1,7
59846116,1,0,7
59862760,1,1,7
59879380,0,0,7
59896032,0,1,7
59912672,1,4,7
59929304,0,0,7
59945948,1,0,7
59962604,1,16,7
59980276,9,16,7
59997944,4,4,7
60014592,9,0,7
60031232,4,0,7
60047868,0,4,7
60064508,0,4,1
60081148,1,0,1
60097796,0,1,1
60114432,0,0,1
60131076,1,4,1
60147708,0,0,1
60164360,0,4,1
60180996,0,25,1
60198672,1,1,1
60215316,0,0,1
60231964,1,1,1
60248604,0,1,1
60265236,0,4,1
60281884,0,9,1
60298528,1,0,1
60315156,0,0,1
60331796,1,0,1
60348436,0,1,1
60365080,0,1,1
60381728,1,9,1
60398348,0,0,1
60415000,0,1,1
60431640,1,0,1
60448276,0,1,1
60464912,0,1,1
60481572,1,1,1
60498204,0,4,1
60514836,0,0,1
60531472,1,1,1
60548120,0,1,1
60564756,0,1,1
60581408,1,4,1
60598028,0,0,1
60614676,0,1,1
60631312,1,1,1
60647964,0,0,1
60664596,0,0,1
60681236,0,0,1
60697876,0,0,1
60714516,0,4,1
60731160,0,1,1
60747808,1,0,1
60764448,0,1,1
60781080,0,4,1
60797708,0,0,1
60814360,0,1,1
60831004,0,0,1
60847640,1,4,1
60864268,0,0,1
60880916,0,1,1
60897556,0,0,1
60914204,1,0,1
60930836,1,0,1
60947484,1,0,1
60964124,0,0,1
60980760,0,1,1
60997388,0,0,1
61014040,0,1,1
61030680,0,0,1
61047324,1,9,1
61063956,0,0,1
61080596,1,4,1
61097236,1,0,1
61113872,0,0,1
61130520,0,1,1
61147160,0,0,1
61163800,0,4,1
61180440,0,1,1
61197072,0,1,1
61213716,0,0,1
61230368,1,1,1
61247008,0,1,1
61263640,1,1,1
61280276,0,1,1
61296920,0,1,1
61313556,0,0,1
61330196,0,0,1
61346848,0,1,1
61363484,1,0,1
61380124,1,1,1
61396748,0,1,1
61413396,0,0,1
61430036,0,0,1
61446684,0,0,1
61463320,0,1,1
61479964,1,0,1
61496596,0,0,1
61513236,0,1,1
61529884,1,1,1
61546524,1,0,1
61563156,0,1,1
61579808,0,0,1
61596428,0,0,1
61613076,1,4,1
61629712,1,0,1
61646364,0,4,1
61662996,1,0,1
61679636,0,1,1
61696280,0,1,1
61712916,0,4,1
61729548,0,1,1
61746204,4,0,1
61762848,0,1,1
61779488,0,1,1
61796112,0,0,1
61812756,1,4,1
61829396,0,0,1
61846044,0,9,1
61862668,1,1,1
61879312,0,0,1
61895956,0,4,1
61912604,1,0,1
61929236,1,1,1
61945884,1,0,1
61962528,0,1,1
61979156,0,0,1
61995792,1,1,1
62012432,0,0,1
62029076,0,0,1
62045720,0,1,1
62062356,0,0,1
62078996,1,0,1
62095636,1,0,1
62112280,1,0,1
62128900,0,0,1
62145556,0,4,1
62162204,1,0,1
62178848,1,1,1
62195472,0,1,1
62212116,1,0,1
62228764,1,0,1
62245404,0,0,1
62262036,0,0,1
62278676,0,0,1
62295324,1,1,1
62311956,0,0,1
62328600,0,0,1
62345244,1,9,1
62361884,0,1,1
62378516,0,0,1
62395152,0,1,1
62411800,0,0,1
62428440,4,0,1
62445080,9,1,1
62461716,9,0,1
62478356,36,4,1
62496040,16,1,1
62513712,1,1,1
62530348,1,0,1
62547004,0,1,1
62563640,1,1,1
62580268,0,0,1
62596912,36,1,1
62614596,25,0,1
62632288,4,0,1
62648908,0,0,1
62665540,0,0,1
62682196,4,0,1
62698840,0,1,1
62715472,0,4,1
62732120,4,0,1
62748752,0,0,1
62765404,4,9,1
62782036,0,16,1
62799716,1,9,1
62816360,0,1,1
62832996,0,0,1
62849628,0,0,1
62866276,1,0,1
62882924,4,0,1
62899552,9,0,1
62916192,9,1,1
62932828,0,0,1
62949480,1,0,1
62966112,1,0,1
62982748,4,1,1
62999400,1,4,1
63016036,0,1,1
63032676,16,0,1
63050352,16,0,1
63068040,1,1,1
63084672,0,0,1
63101316,4,0,1
63117956,4,1,1
63134592,0,4,1
63151232,1,0,1
63167876,0,1,1
63184512,1,9,1
63201160,0,1,1
63217796,0,9,1
63234444,1,4,1
63251068,0,1,1
63267704,0,9,1
63284356,1,4,1
63301008,4,0,1
63317636,0,0,1
63334268,0,0,1
63350920,1,1,1
63367552,0,0,1
63384192,1,1,1
63400828,0,0,1
63417484,0,1,1
63434120,1,9,1
63450752,0,1,1
63467396,1,0,1
63484032,0,0,1
63500676,0,4,1
63517316,1,0,1
63533956,1,1,1
63550596,0,0,1
63567236,0,4,1
63583868,1,1,1
63600520,4,1,1
63617156,0,0,1
63633796,0,0,1
63650428,0,1,1
63667068,1,4,1
63683720,1,4,1
63700352,1,0,1
63716996,1,0,1
63733636,1,0,1
63750280,0,4,1
63766928,1,0,1
63783556,9,1,1
63800192,0,1,1
63816836,0,1,1
63833484,0,1,1
63850116,16,0,1
63867784,4,0,1
63884444,1,1,1
63901080,1,0,1
63917720,0,0,1
63934360,1,0,1
63951008,9,4,1
63967636,1,0,1
63984276,0,1,1
64000912,1,1,1
64017560,0,1,1
64034204,1,0,1
64050828,0,0,1
64067468,0,0,1
64084120,0,1,1
64100756,0,9,1
64117400,1,4,1
64134028,0,0,1
64150676,0,0,1
64167320,4,0,1
64183956,1,0,1
64200592,0,0,1
64217236,0,1,1
64233872,0,0,1
64250516,1,0,1
64267148,0,0,1
64283796,1,0,1
64300432,0,0,1
64317076,0,9,1
64333720,0,1,1
64350356,0,1,1
64366988,0,0,1
64383636,0,0,1
64400276,0,1,1
64416916,0,1,1
64433564,0,1,1
64450188,0,0,1
64466828,0,0,1
64483480,4,0,1
64500116,0,9,1
64516752,0,4,1
64533392,0,4,1
64550036,1,1,1
64566676,1,0,1
64583304,0,0,1
64599952,1,1,1
64616596,0,0,1
64633240,0,0,1
64649884,9,9,1
64666512,0,1,1
64683156,0,0,1
64699800,1,1,1
64716424,0,0,1
64733068,1,0,1
64749720,0,0,1
64766360,0,1,1
64782992,0,0,1
64799632,4,0,1
64816280,0,0,1
64832924,0,0,1
64849552,0,1,1
64866188,0,0,1
64882836,0,1,1
64899484,1,1,1
64916108,0,0,1
64932756,0,1,1
64949400,0,1,1
64966036,0,0,1
64982676,1,1,1
64999312,4,9,1
65015960,0,1,1
65032592,0,0,1
65049232,0,1,1
65065876,0,0,1
65082520,1,0,1
65099164,1,4,1
65115792,0,0,1
65132436,1,0,1
65149080,1,0,1
65165720,0,1,1
65182348,0,0,1
65198992,0,0,1
65215636,0,4,1
65232284,1,0,1
65248916,1,0,1
65265544,0,0,1
65282192,1,0,1
65298836,4,1,1
65315476,4,0,1
65332112,1,0,1
65348760,0,4,1
65365392,0,0,1
65382036,1,0,1
65398672,1,0,1
65415316,0,1,1
65431960,0,1,1
65448592,0,1,1
65465228,0,0,1
65481876,0,0,1
65498524,0,0,1
65515156,1,1,1
65531796,1,0,1
65548440,0,4,1
65565076,0,0,1
65581708,0,0,1
65598352,4,0,1
65614996,0,1,1
65631648,0,1,1
65648272,0,1,1
65664912,0,1,1
65681552,0,0,1
65698192,0,4,1
65714840,1,1,1
65731480,0,1,1
65748120,0,1,1
65764768,9,0,1
65781388,4,0,1
65798036,0,0,1
65814684,1,0,1
65831324,1,1,1
65847952,0,1,1
65864600,1,0,1
65881236,0,4,1
65897884,0,1,1
65914504,0,0,1
65931156,1,0,1
65947800,0,1,1
65964436,0,0,1
65981068,0,1,1
65997720,0,9,1
66014364,4,0,1
66030996,0,0,1
66047632,0,1,1
66064264,0,0,1
66080912,0,0,1
66097552,0,1,1
66114188,0,1,1
66130836,0,1,1
66147484,0,4,1
66164116,0,0,1
66180744,0,0,1
66197392,0,0,1
66214036,0,1,1
66230688,1,0,1
66247316,0,0,1
66263952,0,1,1
66280596,0,0,1
66297236,0,1,1
66313868,0,1,1
66330516,0,0,1
66347156,0,0,1
66363792,0,0,1
66380428,0,0,1
66397064,4,1,1
66413716,0,0,1
66430360,1,0,1
66446988,0,1,1
66463636,1,0,1
66480276,1,0,1
66496912,0,0,1
66513544,0,0,1
66530196,0,4,1
66546840,0,1,1
66563476,4,0,1
66580108,0,0,1
66596760,0,1,1
66613396,0,1,1
66630032,0,0,1
66646664,0,0,1
66663308,0,0,1
66679956,0,1,1
66696604,1,1,1
66713236,1,0,1
66729880,0,4,1
66746520,0,1,1
66763160,0,0,1
66779788,0,0,1
66796428,0,0,1
66813080,0,1,1
66829720,0,1,1
66846348,0,1,1
66862988,0,0,1
66879640,0,1,1
66896288,1,1,1
66912916,0,0,1
66929548,4,1,1
66946196,4,4,1
66962836,0,0,1
66979464,0,0,1
66996120,1,0,1
67012752,0,0,1
67029396,0,0,1
67046040,0,0,1
67062676,0,0,1
67079324,1,0,1
67095956,4,0,1
67112596,4,1,1
67129240,9,1,1
67145884,1,1,1
67162516,0,0,1
67179148,0,1,1
67195788,0,0,1
67212432,0,0,1
67229080,0,4,1
67245712,0,1,1
67262348,0,0,1
67279000,0,1,1
67295636,0,1,1
67312280,1,0,1
67328912,0,1,1
67345556,0,4,1
67362196,0,0,1
67378828,0,1,1
67395476,0,0,1
67412116,0,1,1
67428764,1,0,1
67445392,0,1,1
67462028,4,0,1
67478680,0,4,1
67495316,0,1,1
67511952,0,0,1
67528596,1,0,1
67545236,0,1,1
67561876,0,1,1
67578504,0,0,1
67595156,1,0,1
67611804,1,1,1
67628436,4,1,1
67645076,1,0,1
67661708,1,0,1
67678356,1,1,1
67694996,0,0,1
67711636,0,1,1
67728264,0,0,1
67744916,0,0,1
67761556,0,4,1
67778188,0,1,1
67794828,0,1,1
67811476,0,1,1
67828124,0,0,1
67844756,0,0,1
67861388,0,0,1
67878036,0,4,1
67894676,0,0,1
67911312,0,9,1
67927956,1,1,1
67944604,9,0,1
67961240,0,1,1
67977868,0,0,1
67994520,1,1,1
68011156,0,9,1
68027800,4,0,1
68044424,0,0,1
68061068,4,0,1
68077720,0,1,1
68094352,0,0,1
68110996,1,1,1
68127636,1,0,1
68144276,0,0,1
68160916,0,0,1
68177548,0,1,1
68194188,0,0,1
68210832,0,4,1
68227484,1,0,1
68244108,0,1,1
68260756,1,0,1
68277396,0,1,1
68294036,0,0,1
68310664,0,1,1
68327316,0,4,1
68343952,1,0,1
68360604,0,1,1
68377240,1,1,1
68393868,0,0,1
68410512,0,4,1
68427156,1,0,1
68443796,1,0,1
68460436,1,0,1
68477080,0,1,1
68493716,0,0,1
68510352,4,4,1
68526988,0,0,1
68543636,0,0,1
68560288,1,1,1
68576908,0,0,1
68593556,1,0,1
68610208,1,1,1
68626836,0,0,1
68643480,0,4,1
68660116,0,16,1
68677796,4,9,1
68694436,4,9,1
68711076,1,1,1
68727708,1,0,1
68744356,0,0,1
68760996,0,0,1
68777628,0,0,1
68794272,1,0,1
68810912,1,0,1
68827552,0,0,1
68844188,0,0,1
68860828,0,1,1
68877468,0,0,1
68894116,0,1,1
68910748,0,4,1
68927388,1,0,1
68944040,0,1,1
68960676,1,0,1
68977308,0,0,1
68993952,0,1,1
69010592,0,0,1
69027236,0,4,1
69043872,1,0,1
69060508,1,0,1
69077152,1,0,1
69093796,0,1,1
69110436,0,0,1
69127068,1,0,1
69143720,0,1,1
69160356,0,0,1
69176984,0,0,1
69193628,1,4,1
69210280,1,0,1
69226924,1,1,1
69243556,0,0,1
69260188,0,1,1
69276836,1,0,1
69293476,0,4,1
69310116,0,1,1
69326744,1,0,1
69343392,0,0,1
69360036,0,0,1
69376672,0,1,1
69393304,1,0,1
69409956,4,0,1
69426596,0,1,1
69443236,4,0,1
69459872,1,0,1
69476520,0,1,1
69493160,0,1,1
69509784,0,4,1
69526428,0,0,1
69543080,0,4,1
69559716,0,0,1
69576348,0,0,1
69592988,0,1,1
69609648,1,1,1
69626284,0,1,1
69642924,0,4,1
69659552,0,1,1
69676196,0,0,1
69692836,0,0,1
69709464,0,0,1
69726112,1,0,1
69742756,0,4,1
69759396,0,4,1
69776036,1,0,1
69792668,1,0,1
69809324,1,0,1
69825956,0,1,1
69842592,1,0,1
69859232,1,1,1
69875876,0,0,1
69892516,0,1,1
69909160,0,1,1
69925792,0,1,1
69942448,0,4,1
69959072,0,0,1
69975712,0,1,1
69992352,0,0,1
70008996,0,1,1
70025632,0,4,1
70042268,0,0,1
70058912,1,0,4
70075556,1,0,4
70092196,0,0,4
70108824,0,0,4
70125464,1,0,4
70142116,1,9,4
70158768,1,1,4
70175388,0,0,4
70192032,0,1,4
70208672,0,0,4
70225312,0,4,4
70241956,1,1,4
70258588,0,1,4
70275236,1,0,4
70291876,0,1,4
70308504,0,0,4
70325148,0,9,4
70341804,1,0,4
70358432,1,0,4
70375076,1,1,4
70391708,0,0,4
70408364,1,0,4
70424992,0,4,4
70441640,0,1,4
70458268,0,1,4
70474916,0,0,4
70491556,0,0,4
70508192,0,0,4
70524832,0,1,4
70541476,0,1,4
70558120,0,0,4
70574752,0,1,4
70591392,1,0,4
70608044,1,1,4
70624672,1,4,4
70641304,0,0,4
70657948,0,0,4
70674600,1,0,4
70691236,0,0,4
70707868,0,0,4
70724508,1,1,4
70741156,0,0,4
70757792,0,0,4
70774432,0,4,4
70791068,0,1,4
70807716,0,0,4
70824364,1,1,4
70840996,0,0,4
70857624,0,0,4
70874280,0,1,4
70890920,0,1,4
70907544,1,0,4
70924184,0,4,4
70940836,1,0,4
70957484,1,0,4
70974116,0,0,4
70990752,1,0,4
71007396,1,0,4
71024036,0,1,4
71040668,0,4,4
71057312,0,1,4
71073956,1,1,4
71090600,0,1,4
71107236,0,1,4
71123868,1,1,4
71140520,1,0,4
71157152,4,0,4
71173788,0,1,4
71190432,0,0,4
71207072,1,0,4
71223712,1,4,4
71240352,0,0,4
71256992,0,1,4
71273648,1,1,4
71290276,0,0,4
71306908,0,1,4
71323548,1,4,4
71340204,0,0,4
71356840,0,0,4
71373480,16,0,4
71391144,1,0,4
71407796,0,0,4
71424432,0,0,4
71441076,0,1,4
71457712,1,9,4
71474368,1,9,4
71491000,1,1,4
71507628,0,1,4
71524268,0,0,4
71540916,0,0,4
71557556,4,0,4
71574192,4,1,4
71590820,0,0,4
71607476,0,1,4
71624108,0,0,4
71640756,1,0,4
71657384,0,1,4
71674048,1,1,4
71690664,1,0,4
71707304,0,0,4
71723948,4,0,4
71740592,0,0,4
71757236,0,4,4
71773880,4,1,4
71790504,0,0,4
71807156,0,0,4
71823796,4,0,4
71840440,1,1,4
71857064,4,1,4
71873720,1,4,4
71890352,1,0,4
71906988,0,1,4
71923628,0,0,4
71940284,1,1,4
71956912,0,0,4
71973552,1,1,4
71990180,0,0,4
72006832,0,0,4
72023464,0,1,4
72040108,0,1,4
72056748,0,0,4
72073396,0,0,4
72090028,0,1,4
72106668,0,0,4
72123312,0,1,4
72139956,0,1,4
72156596,0,0,4
72173228,0,0,4
72189864,0,0,4
72206516,0,1,4
72223160,0,1,4
72239792,0,0,4
72256424,0,4,4
72273080,0,4,4
72289720,4,1,4
72306348,0,1,4
72322980,4,1,4
72339640,0,1,4
72356280,0,0,4
72372908,1,0,4
72389556,9,1,4
72406196,1,0,4
72422828,0,0,4
72439468,1,1,4
72456108,0,9,4
72472760,9,1,4
72489396,25,4,4
72507076,9,0,4
72523708,36,0,4
72541404,81,9,4
72559080,64,0,4
72576748,529,16,4
72596512,361,9,4
72615240,49,9,4
72632916,0,1,4
72649560,36,1,4
72667244,100,16,4
72687004,36,4,4
72704672,0,16,4
72722352,1,9,4
72738996,49,0,4
72756664,49,9,4
72774352,1,49,4
72792032,25,36,4
72810756,0,0,4
72827392,9,9,4
72844036,1,36,4
72861724,36,169,4
72881480,25,9,4
72899152,1,64,4
72916828,4,1,4
72933472,36,64,4
72952196,1,784,4
72970920,36,729,4
72990668,196,121,4
73011472,9,4,4
73028124,9,49,4
73045784,0,0,4
73062440,36,64,4
73081168,49,100,4
73100924,4,1,4
73117564,9,324,4
73136284,9,484,4
73154996,25,81,4
73173708,9,1,4
73190356,1,1,4
73207000,4,49,4
73224668,4,0,4
73241308,0,0,4
73257940,0,64,4
73275640,1,1,4
73292272,16,0,4
73309964,1,1,4
73326600,0,9,4
73343248,1,9,4
73359880,25,16,4
73378600,36,196,4
73398360,81,441,4
73418120,9,121,4
73436840,529,25,4
73456592,121,1,4
73475324,1,64,4
73492992,0,16,4
73510680,0,36,4
73528352,4,256,4
73547068,16,169,4
73566824,4,1156,4
73586588,36,196,4
73606356,0,1444,4
73626112,36,676,4
73645868,144,1156,4
73667712,196,441,4
73688512,225,121,4
73709324,36,225,4
73729080,1,100,4
73747800,36,289,4
73767540,484,3136,4
73789384,1089,841,4
73811228,256,2116,4
73833072,100,4489,4
73854896,256,529,4
73875724,25,169,4
73895476,1,256,4
73914200,1,36,4
73931888,49,16,4
73950604,16,576,4
73970340,25,324,4
73990104,0,81,4
74007796,25,441,4
74027564,169,1444,4
74049384,729,1156,4
74071240,256,196,4
74092044,36,100,4
74111796,25,64,4
74130516,1,144,4
74149248,81,576,4
74168980,729,961,4
74189780,324,169,4
74210596,4,256,4
74229320,0,144,4
74248032,1,576,4
74266764,4,1225,4
74286520,289,121,4
74307304,121,400,4
74328124,36,1296,4
74348908,100,441,4
74369716,49,9,4
74387392,0,4,4
74404044,16,100,4
74423796,9,100,4
74442516,4,196,4
74461244,16,1156,4
74482036,49,441,4
74501800,36,4,4
74519468,25,1,4
74537156,25,36,4
74555880,16,1,4
74573548,1,121,4
74592280,16,64,4
74611000,4,81,4
74628680,9,81,4
74646348,100,324,4
74667160,169,1024,4
74688988,169,144,4
74709792,49,0,4
74727488,0,36,4
74745160,36,100,4
74764904,100,225,4
74785708,25,169,4
74805476,25,144,4
74825256,16,9,4
74842924,9,4,4
74859560,0,0,4
74876192,64,121,4
74895960,25,225,4
74915704,49,81,4
74934436,144,100,4
74955224,49,36,4
74973952,1,0,4
74990604,1,1,4
75007236,64,16,4
75025956,16,1,4
75043632,0,1,4
75060288,1,4,4
75076916,4,25,4
75094600,9,289,4
75113308,36,64,4
75132040,16,36,4
75150760,1,16,4
75168440,0,289,4
75187144,4,0,4
75203792,1,121,4
75222512,9,196,4
75241224,0,900,4
75259952,25,441,4
75279720,16,49,4
75298436,64,1600,4
75319212,36,2209,4
75340036,324,2209,4
75361880,289,361,4
75382664,25,81,4
75401396,0,36,4
75419076,0,196,4
75437800,0,25,4
75455472,49,256,4
75475240,225,169,4
75496024,144,289,4
75516832,49,16,4
75535560,16,121,4
75555312,81,9,4
75572996,81,1,4
75590684,4,0,4
75607312,0,121,4
75626036,81,100,4
75645796,4,4,4
75662428,4,169,4
75681156,1,729,4
75699876,49,4,4
75717536,100,81,4
75737320,9,169,4
75756028,0,841,4
75774748,100,676,4
75795556,289,400,4
75816360,121,25,4
75836116,16,1,4
75853780,0,0,4
75870432,9,25,4
75888116,25,100,4
75907880,25,144,4
75927648,9,100,4
75946356,1,25,4
75964024,1,0,4
75980676,1,196,4
75999404,9,784,4
76018108,25,324,4
76037880,16,25,4
76056592,1,400,4
76075324,64,2401,4
76096104,196,1764,4
76117948,225,576,4
76138764,36,196,4
76158508,25,0,4
76176192,16,100,4
76195956,16,256,4
76215724,49,169,4
76235472,49,36,4
76254184,36,4,4
76271884,4,1,4
76288516,1,36,4
76306212,1,324,4
76324932,4,625,4
76343640,64,100,4
76363404,4,1,4
76380040,1,1,4
76396676,100,121,4
76417468,36,64,4
76436200,9,81,4
76453876,0,36,4
76471556,36,49,4
76490280,25,4,4
76507964,9,4,4
76524600,16,0,4
76542268,289,961,4
76563064,400,361,4
76583860,16,529,4
76603644,4,49,4
76621312,9,225,4
76640044,16,1,4
76657720,4,9,4
76674348,144,225,4
76695160,1,64,4
76712840,1,0,4
76729496,16,4,4
76747160,0,25,4
76764828,9,1,4
76781472,64,1,4
76799172,9,64,4
76816848,1,9,4
76833476,4,16,4
76851140,16,361,4
76870912,324,2401,4
76892732,1156,2916,4
76915616,729,1936,4
76937468,121,169,4
76958268,25,49,4
76977004,0,121,4
76995716,25,441,4
77015480,81,400,4
77035236,9,121,4
77053940,576,1024,4
77075784,196,25,4
77095552,0,256,4
77114264,25,121,4
77134048,0,49,4
77151720,49,16,4
77170432,121,144,4
77191236,400,1156,4
77213076,121,144,4
77233888,144,36,4
77253640,1,16,4
77271324,16,121,4
77291076,36,49,4
77309796,64,0,4
77327480,0,16,4
77345148,169,2916,4
77366980,961,6889,4
77388832,729,841,4
77409636,196,121,4
77430440,0,64,4
77448112,0,49,4
77465804,0,324,4
77484504,196,961,4
77505316,196,400,4
77526116,64,1,4
77543804,64,1,4
77561476,16,144,4
77581228,16,225,4
77601000,49,36,4
77619720,1,25,4
77637388,16,9,4
77655088,0,169,4
77673804,9,169,4
77692528,36,36,4
77711232,9,676,4
77729968,49,1024,4
77750760,144,121,4
77771564,9,676,4
77790284,81,25,4
77809000,9,49,4
77826676,4,529,4
77845396,0,484,4
77864116,36,25,4
77882844,100,9,4
77901548,0,0,4
77918180,36,16,4
77936920,0,4,4
77953572,1,1,4
77970204,64,9,4
77987880,64,0,4
78005564,9,64,4
78023224,256,1681,4
78045060,324,3721,4
78066928,225,196,4
78087728,144,81,4
78107480,4,49,4
78125164,4,121,4
78143884,1,64,4
78161556,49,1,4
78179228,1,225,4
78197964,25,144,4
78217720,0,49,4
78235396,9,196,4
78254120,1,0,4
78270764,16,121,4
78290500,4,64,4
78308196,0,1156,4
78327952,16,1,4
78345636,16,961,4
78365396,25,4,4
78383076,36,4,4
78400764,9,16,4
78418440,0,121,4
78437168,36,441,4
78456920,256,121,4
78477712,49,81,4
78496436,1,576,4
78515152,4,484,4
78533876,9,324,4
78552604,25,361,4
78572352,49,144,4
78592128,4,4,4
78608756,25,361,4
78628528,36,400,4
78648272,64,100,4
78668044,81,100,4
78687792,100,841,4
78708596,169,1600,4
78730432,81,361,4
78750188,25,100,4
78769960,16,225,4
78789724,100,225,4
78810520,4,289,4
78829228,196,256,4
78850036,9,100,4
78868760,9,0,4
78885408,36,81,4
78904112,100,169,4
78924924,49,121,4
78944684,25,121,4
78964444,169,144,4
78985236,361,36,4
79004992,64,121,4
79024760,4,529,4
79043468,81,225,4
79063232,100,16,4
79082992,4,64,4
79100676,1,100,4
79119400,16,9,4
79137080,16,16,4
79155804,4,121,4
79174512,9,441,4
79193240,16,49,4
79211948,0,4,4
79228596,1,36,4
79246260,49,0,4
79263972,25,4,4
79281640,16,16,4
79300352,0,9,4
79316984,81,121,4
79336752,25,121,4
79356516,1,841,4
79375240,25,81,4
79393960,36,25,4
79412672,16,256,4
79432444,36,121,4
79452204,1,1,4
79468836,64,225,4
79488592,100,400,4
79509388,144,400,4
79530196,100,144,4
79551000,16,0,4
79568672,4,81,4
79586368,9,36,4
79604032,9,36,4
79621716,36,121,4
79641472,9,49,4
79659168,4,36,4
79676840,25,49,4
79695556,0,64,4
79713220,9,36,4
79730916,0,9,4
79747564,25,196,4
79767324,25,121,4
79787088,9,36,4
79804764,1,64,4
79822436,36,16,4
79841148,49,16,4
79859888,1,1,4
79876524,16,4,4
79894200,25,9,4
79911856,64,784,4
79931636,100,1600,4
79953468,121,256,4
79974276,81,4,4
79991964,16,9,4
80009640,16,16,4
80028348,16,169,4
80048100,1,49,4
80065804,9,169,1
80084524,0,36,1
80102184,64,625,1
80121968,25,4,1
80139640,1,144,1
80158352,9,256,1
80177072,0,9,1
80193716,25,576,1
80213480,100,400,1
80234276,81,1,1
80251964,9,1,1
80268596,169,64,1
80288356,196,100,1
80309152,0,4,1
80325792,36,289,1
80345556,9,196,1
80364280,49,1,1
80381948,16,1,1
80399644,4,4,1
80416280,0,16,1
80433948,16,16,1
80452684,4,1,1
80469328,81,36,1
80488024,289,625,1
80508824,169,1089,1
80530676,144,196,1
80551468,36,9,1
80569156,36,49,1
80587868,324,2401,1
80609712,784,6724,1
80631552,841,1156,1
80653408,225,16,1
80673160,0,4,1
80689800,49,25,1
80708508,36,100,1
80728276,36,121,1
80748036,4,1,1
80764688,16,169,1
80784444,1,9,1
80801084,9,36,1
80818756,0,16,1
80836428,49,64,1
80855164,81,16,1
80873880,4,4,1
80890520,4,0,1
80907148,16,169,1
80926932,1,196,1
80945632,0,25,1
80963312,4,4,1
80979956,9,36,1
80997652,1,16,1
81015324,1,25,1
81032996,1,121,1
81051716,4,100,1
81070448,16,81,1
81089140,144,1444,1
81110980,169,1024,1
81132836,36,484,1
81152584,1,676,1
81171324,49,16,1
81190048,9,225,1
81208756,64,169,1
81228508,4,1,1
81245144,4,36,1
81262836,4,16,1
81280520,0,36,1
81298196,0,16,1
81315880,9,36,1
81333560,9,36,1
81351244,0,1,1
81367880,1,1,1
81384516,1,1,1
81401160,64,4,1
81418844,64,1,1
81436524,1,4,1
81453152,4,361,1
81471884,25,1369,1
81492676,100,169,1
81513480,121,49,1
81533240,49,400,1
81552996,169,400,1
81573784,144,225,1
81594592,0,225,1
81613316,4,784,1
81632044,4,9,1
81648684,81,225,1
81668444,144,16,1
81688192,49,9,1
81705860,16,1600,1
81726668,144,4761,1
81748520,361,625,1
81769316,256,16,1
81789076,0,0,1
81805724,9,25,1
81823388,121,0,1
81842104,9,961,1
81860828,81,3025,1
81881640,81,484,1
81901396,100,4,1
81920120,25,1,1
81937808,36,1,1
81955472,49,400,1
81975220,16,1764,1
81996032,81,400,1
82015800,169,121,1
82036600,16,25,1
82055316,1,4,1
82071964,0,196,1
82090660,36,841,1
82110420,36,3249,1
82131232,144,625,1
82152036,144,36,1
82171792,0,0,1
82188448,1,25,1
82206116,0,36,1
82223796,1,0,1
82240420,4,289,1
82259164,1,625,1
82277864,36,169,1
82297632,100,16,1
82317404,100,36,1
82337160,25,0,1
82354828,4,4,1
82371472,9,9,1
82388120,16,36,1
82406828,256,121,1
82427628,121,9,1
82446364,9,1,1
82463012,1,9,1
82479636,4,0,1
82496276,81,9,1
82513956,400,16,1
82533724,484,81,1
82553476,1,1,1
82570120,196,144,1
82590916,4,100,1
82609640,1,1,1
82626276,64,4,1
82643952,289,25,1
82663724,25,225,1
82683480,121,169,1
82704272,289,0,1
82722992,441,36,1
82742752,225,25,1
82762516,144,4,1
82781244,100,4,1
82799964,4,1,1
82816600,0,49,1
82834268,4,25,1
82851960,49,9,1
82869636,16,9,1
82887316,16,0,1
82904992,81,9,1
82922672,81,0,1
82940356,100,25,1
82960124,64,64,1
82978836,36,1,1
82996520,49,9,1
83014192,0,4,1
83030840,1,0,1
83047484,25,0,1
83065156,16,4,1
83082832,49,0,1
83100508,64,0,1
83118192,625,49,1
83137956,324,4,1
83156672,9,36,1
83174348,64,121,1
83194120,64,36,1
83212840,25,81,1
83231548,289,25,1
83251320,64,0,1
83269008,4,1,1
83285632,16,0,1
83303308,81,16,1
83322040,961,9,1
83340744,289,25,1
83360512,36,100,1
83380284,169,64,1
83400044,9,9,1
83416672,64,0,1
83434360,4,0,1
83451004,0,1,1
83467636,1,0,1
83484268,36,1,1
83501952,361,16,1
83521724,81,25,1
83540432,121,1,1
83559160,144,9,1
83577868,9,0,1
83594516,0,1,1
83611168,16,4,1
83628832,36,0,1
83646524,1,1,1
83663152,64,0,1
83680828,4,1,1
83697480,81,1,1
83715156,4,16,1
83732836,9,0,1
83749464,25,0,1
83767148,16,0,1
83784840,25,4,1
83802516,16,1,1
83820192,4,1,1
83836832,0,1,1
83853476,1,1,1
83870124,16,1,1
83887804,25,0,1
83905476,1,1,1
83922124,1,0,1
83938748,0,1,1
83955396,1,1,1
83972024,121,1,1
83990760,361,16,1
84010516,25,9,1
84028196,1,4,1
84044840,9,4,1
84061484,0,0,1
84078116,1,1,1
84094756,4,1,1
84111408,4,1,1
84128036,64,9,1
84145716,36,25,1
84164428,4,0,1
84181080,0,1,1
84197716,9,1,1
84214356,4,1,1
84230996,9,0,1
84247640,100,0,1
84266352,25,0,1
84284040,1,0,1
84300672,0,1,1
84317316,0,1,1
84333956,0,1,1
84350592,1,0,1
84367240,1,1,1
84383880,4,4,1
84400520,100,1,1
84419240,49,1,1
84436912,1,4,1
84453552,0,1,1
84470180,0,0,1
84486828,9,4,1
84503460,9,9,1
84520124,1,0,1
84536756,4,1,1
84553384,4,1,1
84570020,0,1,1
84586672,0,1,1
84603308,1,1,1
84619948,0,0,1
84636576,0,4,1
84653236,0,4,1
84669876,16,1,1
84687560,0,0,1
84704188,0,0,1
84720840,25,9,1
84738508,4,0,1
84755156,0,1,1
84771788,1,9,1
84788444,4,0,1
84805084,4,1,1
84821724,4,9,1
84838352,0,0,1
84854996,0,1,1
84871628,25,1,1
84889320,36,1,1
84906992,1,4,1
84923640,1,0,1
84940288,1,1,1
84956920,4,1,1
84973548,1,0,1
84990208,16,1,1
85007872,1,0,1
85024520,16,0,1
85042204,0,1,1
85058844,1,1,1
85075476,0,1,1
85092116,1,4,1
85108764,1,0,1
85125396,16,0,1
85143080,4,0,1
85159720,4,1,1
85176360,0,1,1
85192992,0,0,1
85209640,0,1,1
85226280,4,1,1
85242928,9,1,1
85259560,0,1,1
85276196,0,0,1
85292836,0,1,1
85309476,1,4,1
85326120,0,1,1
85342760,1,0,1
85359392,0,4,1
85376036,1,0,1
85392672,0,0,1
85409328,0,1,1
85425956,0,0,1
85442596,0,0,1
85459240,0,4,1
85475888,4,1,1
85492516,1,0,1
85509164,0,1,1
85525796,4,1,1
85542448,9,4,1
85559068,0,0,1
85575720,1,1,1
85592356,0,0,1
85609004,1,4,1
85625636,0,0,1
85642276,0,1,1
85658932,1,1,1
85675552,0,0,1
85692192,1,0,1
85708844,1,4,1
85725476,4,1,1
85742116,9,0,1
85758760,0,0,1
85775400,0,1,1
85792032,0,0,1
85808672,4,1,1
85825316,0,1,1
85841964,0,1,1
85858600,4,1,1
85875244,0,0,1
85891876,1,0,1
85908512,0,1,1
85925164,1,0,1
85941808,1,0,1
85958436,0,9,1
85975088,4,0,1
85991720,1,0,1
86008352,0,0,1
86024996,9,0,1
86041632,4,0,1
86058288,1,4,1
86074916,0,1,1
86091556,0,0,1
86108196,0,1,1
86124844,1,0,1
86141472,0,0,1
86158120,1,1,1
86174760,0,1,1
86191392,0,0,1
86208040,0,4,1
86224676,1,0,1
86241312,4,0,1
86257964,9,4,1
86274608,36,1,1
86292272,4,1,1
86308916,0,1,1
86325560,0,0,1
86342196,0,1,1
86358840,0,4,1
86375476,0,0,1
86392116,0,4,1
86408756,1,9,1
86425396,0,0,1
86442040,0,0,1
86458680,0,1,1
86475316,1,1,1
86491944,0,0,1
86508592,0,9,1
86525240,1,0,1
86541872,0,0,1
86558512,1,1,1
86575160,1,0,1
86591796,0,1,1
86608436,1,1,1
86625076,4,1,1
86641712,4,0,1
86658360,1,4,1
86675000,0,0,1
86691628,0,1,1
86708272,1,1,1
86724916,0,1,1
86741552,0,0,1
86758196,0,1,1
86774848,4,1,1
86791480,0,0,1
86808104,4,4,1
86824744,0,0,1
86841408,1,1,1
86858052,4,4,1
86874684,16,4,1
86892356,1,0,1
86908992,0,0,1
86925636,0,4,1
86942276,4,1,1
86958904,4,0,1
86975560,0,4,1
86992204,0,0,1
87008828,0,1,1
87025472,1,4,1
87042124,0,0,1
87058756,0,0,1
87075404,0,4,1
87092028,0,1,1
87108672,0,0,1
87125312,0,9,1
87141956,1,0,1
87158596,1,0,1
87175244,0,1,1
87191876,0,0,1
87208516,4,0,1
87225156,16,4,1
87242844,0,0,1
87259476,0,4,1
87276120,0,9,1
87292760,0,0,1
87309404,1,4,1
87326040,1,16,1
87343708,9,1,1
87360348,16,1,1
87378036,1,0,1
87394680,0,4,1
87411320,1,0,1
87427956,0,1,1
87444596,9,1,1
87461236,16,0,1
87478908,1,1,1
87495552,0,1,1
87512200,0,1,1
87528832,1,0,1
87545464,1,4,1
87562120,4,1,1
87578768,9,1,1
87595400,0,1,1
87612028,0,0,1
87628676,1,4,1
87645324,16,4,1
87662992,0,0,1
87679628,0,1,1
87696276,0,1,1
87712924,16,0,1
87730592,16,0,1
87748272,1,0,1
87764900,0,1,1
87781564,4,0,1
87798196,1,0,1
87814844,1,1,1
87831468,16,1,1
87849164,4,0,1
87865780,0,0,1
87882428,0,1,1
87899064,0,0,1
87915716,4,0,1
87932356,1,1,1
87948988,1,0,1
87965620,0,0,1
87982276,1,4,1
87998912,1,0,1
88015556,0,1,1
88032192,16,1,1
88049884,4,0,1
88066508,0,1,1
88083156,0,1,1
88099792,1,1,1
88116436,1,0,1
88133080,4,4,1
88149704,4,0,1
88166336,4,0,1
88183000,0,0,1
88199636,25,1,1
88217320,25,0,1
88234996,0,0,1
88251640,0,0,1
88268268,0,4,1
88284904,0,4,1
88301548,1,1,1
88318192,0,0,1
88334840,0,1,1
88351480,9,4,1
88368108,1,0,1
88384760,0,1,1
88401396,1,0,1
88418040,4,1,1
88434664,0,4,1
88451312,1,0,1
88467948,0,1,1
88484596,4,0,1
88501228,9,0,1
88517888,9,1,1
88534520,0,1,1
88551160,25,4,1
88568836,1,4,1
88585476,1,1,1
88602112,0,9,1
88618760,4,1,1
88635388,1,0,1
88652044,1,1,1
88668676,1,0,1
88685312,1,0,1
88701956,9,1,1
88718596,1,0,1
88735236,0,0,1
88751876,0,1,1
88768516,1,1,1
88785152,0,0,1
88801796,9,9,1
88818436,0,0,1
88835076,0,0,1
88851720,1,1,1
88868360,0,1,1
88884992,1,0,1
88901624,16,9,1
88919320,0,1,1
88935964,0,0,1
88952592,0,1,1
88969244,1,0,1
88985872,9,0,1
89002512,36,0,1
89020196,36,1,1
89037884,4,0,1
89054516,0,0,1
89071156,0,4,1
89087804,0,1,1
89104436,0,1,1
89121076,0,9,1
89137716,4,1,1
89154356,1,0,1
89171004,0,4,1
89187636,4,0,1
89204272,1,0,1
89220916,1,9,1
89237552,0,0,1
89254200,4,0,1
89270832,0,4,1
89287476,0,0,1
89304124,9,0,1
89320768,16,4,1
89338436,0,1,1
89355080,0,1,1
89371716,0,4,1
89388352,4,0,1
89404996,1,1,1
89421632,16,4,1
89439312,0,0,1
89455956,0,1,1
89472596,0,1,1
89489232,0,0,1
89505876,4,1,1
89522524,1,0,1
89539152,0,1,1
89555796,0,1,1
89572436,1,1,1
89589084,0,1,1
89605712,0,0,1
89622356,1,1,1
89639004,9,4,1
89655640,0,1,1
89672276,1,0,1
89688912,0,1,1
89705556,0,1,1
89722192,4,0,1
89738832,4,4,1
89755480,0,0,1
89772116,0,0,1
89788768,9,0,1
89805400,0,1,1
89822036,1,0,1
89838684,4,1,1
89855316,4,0,1
89871948,0,0,1
89888596,0,1,1
89905240,0,1,1
89921872,0,0,1
89938516,0,9,1
89955156,4,1,1
89971808,9,1,1
89988436,0,0,1
90005068,0,9,1
90021712,0,0,1
90038356,16,4,1
90056036,9,0,2
90072676,4,0,2
90089320,1,0,2
90105972,1,1,2
90122604,1,1,2
90139228,9,1,2
90155868,16,1,2
90173552,0,0,2
90190200,1,4,2
90206836,1,0,2
90223468,1,1,2
90240112,1,4,2
90256756,1,0,2
90273396,4,1,2
90290032,0,1,2
90306680,4,0,2
90323328,1,1,2
90339956,1,4,2
90356596,0,0,2
90373244,0,4,2
90389888,1,1,2
90406520,1,1,2
90423152,0,1,2
90439788,0,0,2
90456432,1,0,2
90473080,4,1,2
90489720,9,1,2
90506368,0,0,2
90522992,0,0,2
90539628,0,0,2
90556268,0,1,2
90572920,0,0,2
90589556,9,0,2
90606192,64,4,2
90623872,16,4,2
90641552,0,4,2
90658204,1,9,2
90674836,1,0,2
90691476,0,0,2
90708132,1,4,2
90724752,0,0,2
90741384,0,4,2
90758028,0,4,2
90774684,0,0,2
90791328,0,1,2
90807952,0,9,2
90824600,1,0,2
90841232,0,1,2
90857876,0,1,2
90874520,9,1,2
90891152,0,0,2
90907804,9,1,2
90924448,1,0,2
90941076,1,0,2
90957708,16,1,2
90975400,1,1,2
90992040,16,4,2
91009708,9,0,2
91026348,1,0,2
91042996,0,4,2
91059624,0,0,2
91076276,4,4,2
91092908,0,0,2
91109564,1,0,2
91126192,9,9,2
91142828,0,0,2
91159464,1,1,2
91176112,0,9,2
91192756,0,1,2
91209392,0,0,2
91226028,4,1,2
91242680,4,0,2
91259316,9,1,2
91275944,9,9,2
91292592,0,0,2
91309236,0,0,2
91325880,1,4,2
91342508,0,1,2
91359144,1,0,2
91375796,0,4,2
91392444,1,4,2
91409072,0,0,2
91425716,1,4,2
91442368,1,1,2
91458984,1,0,2
91475628,0,4,2
91492268,1,1,2
91508928,1,1,2
91525556,1,9,2
91542188,1,0,2
91558820,4,1,2
91575476,16,4,2
91593144,0,0,2
91609792,0,0,2
91626432,1,1,2
91643076,0,0,2
91659708,1,1,2
91676356,1,1,2
91692980,4,0,2
91709640,1,0,2
91726276,0,1,2
91742920,1,1,2
91759544,25,0,2
91777232,9,1,2
91793864,0,0,2
91810508,0,4,2
91827148,0,0,2
91843812,9,4,2
91860436,1,1,2
91877064,4,0,2
91893696,25,4,2
91911392,16,0,2
91929068,0,0,2
91945716,4,1,2
91962344,1,1,2
91978996,0,1,2
91995636,1,4,2
92012268,0,1,2
92028900,0,0,2
92045560,1,1,2
92062204,1,0,2
92078836,16,4,2
92096508,9,4,2
92113164,1,1,2
92129792,1,0,2
92146444,1,0,2
92163080,1,9,2
92179716,0,1,2
92196348,1,1,2
92213000,1,4,2
92229628,0,0,2
92246276,9,0,2
92262908,4,0,2
92279552,0,1,2
92296188,9,4,2
92312840,81,9,2
92330528,25,1,2
92348200,0,4,2
92364844,0,9,2
92381480,9,0,2
92398124,4,0,2
92414752,0,0,2
92431388,0,0,2
92448036,0,4,2
92464684,0,1,2
92481316,0,1,2
92497956,25,1,2
92515636,16,4,2
92533312,0,0,2
92549952,1,1,2
92566592,0,16,2
92584280,1,9,2
92600920,1,0,2
92617560,4,0,2
92634208,9,1,2
92650840,0,0,2
92667476,4,0,2
92684124,1,0,2
92700768,4,4,2
92717404,1,1,2
92734024,0,4,2
92750676,1,1,2
92767324,0,0,2
92783956,0,0,2
92800596,1,0,2
92817228,0,1,2
92833876,1,1,2
92850524,1,1,2
92867148,1,1,2
92883804,9,1,2
92900436,0,0,2
92917072,0,4,2
92933708,0,1,2
92950356,4,1,2
92967004,0,1,2
92983648,0,1,2
93000280,9,0,2
93016912,0,1,2
93033548,0,0,2
93050196,4,4,2
93066828,0,1,2
93083472,0,0,2
93100128,1,4,2
93116764,1,1,2
93133384,1,1,2
93150028,0,1,2
93166684,0,0,2
93183316,0,0,2
93199952,0,0,2
93216584,4,16,2
93234280,1,4,2
93250928,1,1,2
93267556,1,0,2
93284196,0,0,2
93300844,4,1,2
93317476,49,9,2
93335148,9,1,2
93351796,1,4,2
93368432,0,0,2
93385072,1,0,2
93401708,4,1,2
93418348,4,0,2
93434996,4,4,2
93451636,1,9,2
93468276,1,0,2
93484916,1,0,2
93501556,0,4,2
93518204,1,0,2
93534828,36,4,2
93552508,25,1,2
93570192,0,0,2
93586836,0,1,2
93603476,0,4,2
93620112,0,9,2
93636768,1,0,2
93653400,1,0,2
93670036,1,4,2
93686680,0,1,2
93703324,4,0,2
93719960,1,1,2
93736596,0,0,2
93753236,1,1,2
93769884,4,16,2
93787564,0,1,2
93804200,0,4,2
93820836,0,9,2
93837488,0,0,2
93854128,16,1,2
93871784,16,4,2
93889460,0,1,2
93906108,0,0,2
93922748,0,0,2
93939392,0,1,2
93956036,0,1,2
93972684,4,0,2
93989312,1,4,2
94005948,0,1,2
94022584,0,0,2
94039244,0,1,2
94055884,0,1,2
94072520,1,1,2
94089144,0,4,2
94105796,9,4,2
94122428,4,0,2
94139084,0,1,2
94155712,4,0,2
94172352,1,0,2
94188988,0,1,2
94205636,4,1,2
94222268,0,0,2
94238932,1,1,2
94255560,1,1,2
94272196,1,0,2
94288824,0,0,2
94305484,4,1,2
94322116,1,0,2
94338760,4,4,2
94355392,0,0,2
94372032,0,0,2
94388664,0,4,2
94405308,4,0,2
94421944,4,0,2
94438600,0,1,2
94455236,0,0,2
94471868,0,1,2
94488508,1,1,2
94505164,1,0,2
94521792,1,0,2
94538440,1,4,2
94555064,0,0,2
94571716,0,1,2
94588356,4,4,2
94604988,0,0,2
94621628,1,0,2
94638280,0,0,2
94654924,1,9,2
94671552,0,0,2
94688188,1,4,2
94704844,1,1,2
94721480,0,0,2
94738112,4,4,2
94754740,0,0,2
94771396,0,1,2
94788028,0,1,2
94804668,0,0,2
94821312,1,0,2
94837960,0,1,2
94854596,4,0,2
94871224,0,0,2
94887868,4,1,2
94904516,0,0,2
94921156,0,1,2
94937792,1,4,2
94954428,0,1,2
94971076,0,1,2
94987712,1,4,2
95004348,0,0,2
95020984,0,4,2
95037648,4,4,2
95054268,0,0,2
95070904,0,0,2
95087536,1,1,2
95104196,1,0,2
95120828,0,0,2
95137484,1,4,2
95154112,1,0,2
95170756,1,1,2
95187396,0,4,2
95204036,0,1,2
95220672,0,0,2
95237320,0,4,2
95253960,1,0,2
95270588,0,1,2
95287224,1,4,2
95303876,0,0,2
95320516,0,1,2
95337164,0,4,2
95353792,1,0,2
95370436,0,4,2
95387064,0,4,2
95403716,1,1,2
95420340,0,0,2
95437000,1,1,2
95453632,0,1,2
95470276,1,1,2
95486900,4,1,2
95503556,0,4,2
95520192,1,0,2
95536840,1,4,2
95553460,0,0,2
95570116,0,0,2
95586756,0,1,2
95603396,4,0,2
95620032,0,4,2
95636680,1,1,2
95653308,0,0,2
95669948,0,4,2
95686588,1,4,2
95703240,0,0,2
95719876,1,1,2
95736524,0,9,2
95753152,4,0,2
95769792,0,0,2
95786432,0,4,2
95803076,0,0,2
95819708,0,0,2
95836360,0,1,2
95853000,0,1,2
95869636,9,0,2
95886256,4,1,2
95902916,0,1,2
95919548,0,1,2
95936200,4,1,2
95952832,0,1,2
95969484,1,1,2
95986112,1,0,2
96002748,0,4,2
96019388,1,0,2
96036048,0,4,2
96052676,1,0,2
96069308,0,1,2
96085944,1,0,2
96102592,0,9,2
96119232,1,0,2
96135868,9,0,2
96152508,0,0,2
96169160,0,1,2
96185796,0,1,2
96202432,0,1,2
96219072,0,1,2
96235716,0,1,2
96252352,0,1,2
96268996,1,1,2
96285628,1,0,2
96302272,0,4,2
96318920,0,1,2
96335556,1,1,2
96352184,0,1,2
96368840,0,1,2
96385464,0,0,2
96402104,0,1,2
96418752,0,4,2
96435396,1,1,2
96452032,0,1,2
96468672,0,1,2
96485304,0,0,2
96501964,1,4,2
96518600,0,1,2
96535244,0,1,2
96551872,9,0,2
96568516,0,4,2
96585152,1,1,2
96601784,0,1,2
96618432,0,1,2
96635080,0,4,2
96651708,0,0,2
96668348,0,0,2
96684988,0,1,2
96701632,0,0,2
96718268,0,4,2
96734908,0,0,2
96751560,4,4,2
96768200,4,0,2
96784832,1,0,2
96801472,1,1,2
96818112,0,1,2
96834760,0,0,2
96851392,4,1,2
96868028,0,0,2
96884668,0,0,2
96901312,0,1,2
96917960,0,1,2
96934588,0,0,2
96951228,0,1,2
96967876,0,0,2
96984512,0,0,2
97001156,1,4,2
97017784,0,1,2
97034436,1,0,2
97051072,0,4,2
97067716,1,0,2
97084344,1,0,2
97101004,1,1,2
97117636,0,4,2
97134268,0,0,2
97150916,1,1,2
97167556,1,0,2
97184196,4,0,2
97200828,0,4,2
97217468,1,0,2
97234124,0,0,2
97250760,9,0,2
97267396,1,1,2
97284020,0,1,2
97300672,0,16,2
97318356,0,1,2
97334992,0,0,2
97351636,1,1,2
97368280,0,1,2
97384908,0,0,2
97401556,4,1,2
97418192,0,1,2
97434844,1,16,2
97452512,0,4,2
97469160,1,1,2
97485796,1,1,2
97502436,1,1,2
97519072,0,4,2
97535716,1,0,2
97552352,4,1,2
97569004,0,0,2
97585624,0,9,2
97602264,1,9,2
97618908,1,0,2
97635560,0,1,2
97652196,0,1,2
97668832,0,1,2
97685468,1,0,2
97702112,4,0,2
97718748,0,1,2
97735396,0,4,2
97752024,0,4,2
97768680,0,4,2
97785312,0,1,2
97801956,0,1,2
97818588,0,1,2
97835236,0,4,2
97851868,0,1,2
97868520,4,0,2
97885148,0,1,2
97901804,0,0,2
97918428,1,1,2
97935080,0,1,2
97951700,0,0,2
97968364,0,1,2
97984988,0,1,2
98001632,0,0,2
98018272,1,4,2
98034916,0,0,2
98051560,1,1,2
98068196,1,0,2
98084828,0,1,2
98101480,0,0,2
98118104,0,4,2
98134756,1,0,2
98151396,1,1,2
98168048,1,1,2
98184664,9,0,2
98201312,9,0,2
98217948,1,9,2
98234608,4,0,2
98251240,1,0,2
98267884,1,1,2
98284504,0,1,2
98301152,0,0,2
98317796,4,4,2
98334436,1,1,2
98351068,0,1,2
98367724,4,1,2
98384348,0,0,2
98400996,1,0,2
98417624,0,1,2
98434280,1,1,2
98450920,1,4,2
98467556,1,0,2
98484184,0,1,2
98500840,1,0,2
98517468,0,4,2
98534112,9,0,2
98550748,0,0,2
98567408,4,9,2
98584028,0,4,2
98600676,1,0,2
98617312,1,1,2
98633952,16,0,2
98651640,16,0,2
98669320,1,1,2
98685948,0,0,2
98702596,0,1,2
98719232,0,0,2
98735864,0,9,2
98752508,1,0,2
98769164,0,1,2
98785804,1,0,2
98802440,0,0,2
98819064,1,0,2
98835712,1,0,2
98852348,4,4,2
98869004,1,4,2
98885628,1,0,2
98902280,0,1,2
98918900,4,0,2
98935548,0,1,2
98952188,0,0,2
98968840,0,1,2
98985468,0,0,2
99002108,0,1,2
99018740,0,1,2
99035396,0,1,2
99052040,0,0,2
99068676,0,0,2
99085324,1,1,2
99101960,0,1,2
99118584,0,0,2
99135232,1,1,2
99151860,0,1,2
99168532,1,1,2
99185164,0,1,2
99201800,4,1,2
99218428,1,1,2
99235080,9,0,2
99251720,1,1,2
99268360,1,1,2
99284980,0,0,2
99301636,0,1,2
99318276,1,0,2
99334904,0,1,2
99351560,1,1,2
99368204,1,0,2
99384844,1,1,2
99401480,0,1,2
99418108,4,0,2
99434764,1,4,2
99451396,9,0,2
99468028,4,1,2
99484664,0,1,2
99501320,0,1,2
99517944,0,0,2
99534596,1,1,2
99551236,0,1,2
99567892,4,1,2
99584524,1,1,2
99601160,1,0,2
99617788,0,0,2
99634444,1,1,2
99651080,1,4,2
99667708,0,1,2
99684340,0,4,2
99701004,1,0,2
99717636,1,0,2
99734276,1,4,2
99750916,0,0,2
99767564,1,0,2
99784204,4,1,2
99800828,0,0,2
99817464,1,0,2
99834120,1,1,2
99850756,0,0,2
99867392,1,0,2
99884020,1,0,2
99900676,0,4,2
99917304,0,0,2
99933956,0,4,2
99950592,1,4,2
99967244,0,1,2
99983872,16,4,2
100001556,0,0,2
100019236,0,1,2
100036924,0,0,2
100054596,1,4,6
100072276,0,0,6
100089956,0,1,6
100107648,0,1,6
100125328,0,1,6
100142996,0,0,6
100160676,0,0,6
100178348,0,1,6
100196024,0,1,6
100213712,0,1,6
100231404,1,0,6
100249076,4,0,6
100266768,1,1,6
100284444,9,1,6
100302112,1,0,6
100319788,0,1,6
100337468,0,0,6
100355164,1,1,6
100372836,0,1,6
100390524,0,1,6
100408188,0,0,6
100425884,0,1,6
100443568,4,0,6
100461236,1,0,6
100478904,1,0,6
100496592,0,0,6
100514272,0,4,6
100531952,0,0,6
100549640,4,1,6
100567316,1,0,6
100585012,0,1,6
100602668,0,0,6
100620356,0,1,6
100638044,0,0,6
100655700,0,0,6
100673396,0,1,6
100691076,0,0,6
100708760,1,0,6
100726428,0,1,6
100744108,0,4,6
100761796,0,0,6
100779468,0,0,6
100797152,0,1,6
100814824,0,0,6
100832516,0,4,6
100850204,0,0,6
100867872,0,0,6
100885556,1,0,6
100903244,0,1,6
100920920,0,0,6
100938592,1,0,6
100956272,0,0,6
100973960,1,0,6
100991628,4,0,6
101009308,1,0,6
101027000,0,0,6
101044684,1,4,6
101062360,0,0,6
101080028,1,0,6
101097712,4,0,6
101115392,1,0,6
101133072,1,4,6
101150752,0,0,6
101168444,1,0,6
101186104,0,0,6
101203796,0,1,6
101221480,0,0,6
101239156,0,0,6
101256824,0,0,6
101274508,4,0,6
101292204,1,1,6
101309872,1,0,6
101327556,0,1,6
101345228,0,0,6
101362932,1,1,6
101380600,0,1,6
101398276,0,0,6
101415960,0,1,6
101433640,0,0,6
101451308,0,1,6
101468984,0,0,6
101486692,0,1,6
101504360,0,0,6
101522040,4,4,6
101539720,1,0,6
101557396,0,1,6
101575072,0,0,6
101592756,1,1,6
101610420,0,0,6
101628116,0,1,6
101645792,0,0,6
101663472,0,0,6
101681164,0,1,6
101698848,0,0,6
101716516,0,1,6
101734184,0,0,6
101751884,1,1,6
101769552,0,0,6
101787224,0,0,6
101804920,1,0,6
101822604,1,0,6
101840288,0,1,6
101857948,0,0,6
101875616,1,0,6
101893316,9,1,6
101910996,1,9,6
101928672,0,0,6
101946352,0,0,6
101964032,0,0,6
101981724,0,1,6
101999404,4,1,6
102017084,4,0,6
102034760,1,0,6
102052436,4,0,6
102070116,4,1,6
102087796,0,0,6
102105476,0,0,6
102123152,0,0,6
102140844,0,4,6
102158528,1,0,6
102176196,1,0,6
102193868,0,1,6
102211544,0,0,6
102229232,0,4,6
102246916,0,0,6
102264596,0,0,6
102282280,0,0,6
102299972,1,4,6
102317628,0,0,6
102335320,0,1,6
102352992,0,0,6
102370676,9,1,6
102388352,4,0,6
102406036,4,4,6
102423720,81,4,6
102442428,16,1,6
102461136,36,36,6
102480912,529,0,6
102500672,784,100,6
102522512,484,36,6
102543300,324,25,6
102564116,9,64,6
102582828,0,0,6
102600520,1,9,6
102618200,9,0,6
102635876,4,0,6
102653544,16,0,6
102672268,0,4,6
102689956,1,16,6
102708680,16,1,6
102727396,81,4,6
102746116,36,1,6
102764836,16,4,6
102783564,1,9,6
102801236,49,0,6
102819960,81,1,6
102838684,36,0,6
102857392,9,1,6
102875064,9,4,6
102892764,0,0,6
102910436,9,9,6
102928116,0,0,6
102945788,4,0,6
102963488,64,0,6
102982196,121,1,6
103001960,1,9,6
103019640,0,0,6
103037316,100,1,6
103057068,81,1,6
103075780,49,0,6
103094512,36,9,6
103113240,16,4,6
103131952,324,16,6
103152756,121,16,6
103173556,16,1,6
103192280,81,0,6
103210984,100,4,6
103230756,4,1,6
103248424,0,4,6
103266120,1,1,6
103283804,1,0,6
103301480,1,4,6
103319152,16,25,6
103338912,4,0,6
103356604,9,0,6
103374276,0,1,6
103391960,100,16,6
103412752,1,16,6
103431476,484,9,6
103451232,9,81,6
103469952,169,0,6
103489720,36,4,6
103508444,289,9,6
103528188,0,81,6
103546908,3600,9,6
103567732,6889,676,6
103590592,3600,484,6
103613468,3844,256,6
103636368,0,196,6
103656100,3844,144,6
103678972,3364,400,6
103701868,8464,25,6
103723712,400,121,6
103745528,289,0,6
103765316,2916,9,6
103786112,1681,196,6
103808976,676,36,6
103829788,1936,0,6
103850596,784,1,6
103870344,12769,729,6
103894272,3025,900,6
103917152,121,0,6
103936912,676,4,6
103956680,841,0,6
103976444,4,196,6
103996188,484,25,6
104016992,324,64,6
104037788,289,1,6
104057556,484,0,6
104077304,225,36,6
104098108,6400,100,6
104120968,12100,1024,6
104145932,4225,324,6
104168828,484,1,6
104188592,900,1,6
104208340,121,16,6
104229152,25,9,6
104247868,400,16,6
104268680,676,4,6
104288440,25,16,6
104308196,49,25,6
104327936,1369,4,6
104348756,900,100,6
104370596,16,64,6
104390348,441,0,6
104410108,25,0,6
104428840,625,9,6
104448588,64,16,6
104468344,3969,225,6
104491232,5329,256,6
104514104,625,100,6
104535964,81,1,6
104554664,2401,100,6
104577548,4225,324,6
104600424,841,225,6
104622256,0,4,6
104639944,3136,36,6
104661788,961,196,6
104683636,2209,1,6
104704436,900,100,6
104726276,49,1,6
104744996,784,25,6
104765788,1936,225,6
104788668,1156,64,6
104810520,289,0,6
104830284,4,16,6
104848996,16,16,6
104868756,1,1,6
104886428,1849,1,6
104907220,5184,121,6
104930124,81,169,6
104950912,289,49,6
104971716,361,0,6
104991468,196,121,6
105013324,144,4,6
105033092,144,25,6
105053880,81,16,6
105073624,64,9,6
105092356,25,64,6
105112116,16,9,6
105130836,144,16,6
105151636,0,25,6
105170356,16,16,6
105190116,256,36,6
105210912,2401,64,6
105232756,4356,81,6
105254596,2304,196,6
105277492,729,64,6
105298272,2809,81,6
105320100,5476,729,6
105342968,4096,441,6
105365876,5476,36,6
105387712,5041,361,6
105410572,5184,400,6
105433464,4761,169,6
105456352,121,121,6
105478196,9,0,6
105495876,676,1,6
105515640,4,4,6
105533316,441,25,6
105554132,256,1,6
105573876,0,25,6
105592596,9,0,6
105610284,121,9,6
105630036,0,0,6
105647724,16,4,6
105666428,729,25,6
105687244,1296,169,6
105710120,625,36,6
105730916,121,36,6
105751720,25,36,6
105771480,9,9,6
105789152,36,25,6
105808920,36,25,6
105828672,81,0,6
105847392,484,64,6
105868192,441,64,6
105889012,4,0,6
105906676,4,36,6
105925392,625,0,6
105945164,2025,64,6
105966996,1156,49,6
105988832,784,9,6
106008604,1764,36,6
106030428,81,81,6
106050176,289,4,6
106069952,441,9,6
106089720,484,64,6
106110512,121,0,6
106130268,1444,81,6
106152124,1600,16,6
106173956,225,16,6
106194756,484,16,6
106215564,1089,16,6
106237400,16,4,6
106256124,64,0,6
106274844,49,0,6
106293556,81,0,6
106312276,1,0,6
106329960,484,4,6
106349728,484,9,6
106369472,64,9,6
106388176,676,9,6
106407956,1156,81,6
106429804,441,49,6
106450596,289,1,6
106470352,9,9,6
106488036,36,4,6
106506732,9,0,6
106524432,961,4,6
106544200,961,64,6
106565004,196,36,6
106585804,0,0,6
106603460,676,0,6
106623236,2401,16,6
106645076,4,9,6
106662752,400,36,6
106683568,0,0,6
106701232,121,9,6
106720984,2209,81,6
106742832,2500,121,6
106765716,100,1,6
106785452,3844,121,6
106808360,2704,169,6
106831240,900,100,6
106853064,2116,49,6
106874912,3844,121,6
106897796,2916,144,6
106920664,2209,81,6
106942516,324,64,6
106963324,1,1,6
106981000,196,1,6
107000748,961,64,6
107021552,1024,64,6
107043396,100,9,6
107063136,484,0,6
107082908,1369,64,6
107104752,16,16,6
107124516,441,36,6
107145312,361,9,6
107165084,25,1,6
107183780,196,4,6
107203540,16,16,6
107223308,3600,81,6
107245136,13689,576,6
107269052,19044,676,6
107292996,1681,441,6
107315876,484,0,6
107335620,676,16,6
107356432,961,16,6
107377228,144,49,6
107398032,225,9,6
107417804,361,0,6
107437556,529,100,6
107459400,16,9,6
107478128,36,4,6
107496840,0,1,6
107514516,81,0,6
107533228,529,4,6
107553000,324,4,6
107572772,441,25,6
107593548,1681,36,6
107615388,2500,169,6
107638264,3600,144,6
107661160,2025,100,6
107684044,16,100,6
107704816,961,1,6
107724588,2401,121,6
107747484,289,121,6
107769324,324,1,6
107789072,361,49,6
107809876,529,9,6
107829636,36,9,6
107848356,2704,25,6
107870184,900,81,6
107891000,1,4,6
107908688,16,0,6
107927396,196,25,6
107948192,484,64,6
107968976,2704,121,6
107991864,9025,100,6
108014756,3025,289,6
108037628,1024,121,6
108060512,1296,121,6
108083404,484,64,6
108104192,576,25,6
108124984,2025,169,6
108147868,6241,400,6
108170740,10609,529,6
108194664,5625,400,6
108217552,256,144,6
108239412,0,25,6
108258112,16,4,6
108276836,121,4,6
108296608,144,16,6
108317404,121,4,6
108337148,16,16,6
108356908,576,0,6
108376668,3969,121,6
108399552,961,289,6
108421400,36,0,6
108440128,9,1,6
108457796,49,36,6
108477552,9,64,6
108496276,324,81,6
108517076,1089,0,6
108537888,121,9,6
108557652,484,1,6
108577388,49,64,6
108597148,841,9,6
108616912,1600,64,6
108638768,2304,0,6
108659556,1444,64,6
108681396,25,36,6
108701144,196,64,6
108721952,169,4,6
108741724,169,25,6
108762528,529,1,6
108782284,676,4,6
108802032,676,81,6
108822836,1936,36,6
108844668,100,1,6
108864420,3969,81,6
108886280,784,144,6
108908124,4,9,6
108925808,16,4,6
108944500,400,0,6
108964260,4225,169,6
108987156,1156,225,6
109010048,0,9,6
109027732,0,1,6
109045384,841,4,6
109065140,1936,225,6
109088036,361,49,6
109108820,1156,144,6
109131716,3364,121,6
109154604,36,16,6
109174344,2304,0,6
109195144,2809,25,6
109216992,729,144,6
109238836,529,36,6
109259624,784,36,6
109280432,49,64,6
109300188,0,1,6
109317884,16,1,6
109336604,16,4,6
109355320,0,0,6
109372996,121,9,6
109392756,729,9,6
109412516,361,9,6
109432276,9,1,6
109449956,100,9,6
109469724,100,4,6
109489476,144,4,6
109509240,9,9,6
109526924,256,0,6
109546684,169,4,6
109566436,9,4,6
109584104,4,4,6
109601800,0,9,6
109619476,225,4,6
109639216,361,25,6
109660028,81,16,6
109679792,625,0,6
109699552,1444,121,6
109722436,9,49,6
109741156,529,1,6
109760920,2025,144,6
109783800,169,100,6
109805632,64,16,6
109825384,0,4,6
109843068,529,1,6
109862828,0,81,6
109881536,676,9,6
109901304,1225,81,6
109923160,0,25,6
109941876,784,144,6
109963708,49,4,6
109982428,225,9,6
110002204,900,0,6
110021960,441,25,6
110042748,289,9,6
110062504,1600,64,4
110084364,324,49,4
110105164,9,9,4
110122832,841,36,4
110143628,4356,400,4
110166496,4900,196,4
110189384,4761,225,4
110212280,1936,441,4
110235168,576,25,4
110255960,676,1,4
110275712,256,144,4
110297556,64,36,4
110317316,0,1,4
110335004,64,0,4
110353724,4,4,4
110371392,121,1,4
110391144,441,1,4
110410912,1225,25,4
110432752,400,25,4
110453548,1936,64,4
110475392,1521,100,4
110498276,729,1,4
110518024,9604,196,4
110540904,4624,361,4
110563792,3025,49,4
110585620,2209,100,4
110608520,196,81,4
110629316,9,4,4
110646996,9,0,4
110664656,1681,36,4
110686520,2916,81,4
110708352,81,9,4
110727068,3136,100,4
110749952,256,100,4
110771784,1156,49,4
110793620,2500,81,4
110815468,3136,121,4
110838348,2304,289,4
110861224,81,64,4
110881004,16,1,4
110899712,529,4,4
110919480,900,0,4
110939224,225,9,4
110958988,1849,100,4
110981860,784,121,4
111003720,144,0,4
111023488,25,4,4
111042192,400,9,4
111061940,36,9,4
111080680,289,9,4
111100444,1369,9,4
111121228,2704,100,4
111144112,1369,169,4
111167012,169,0,4
111186744,1444,144,4
111209636,1024,16,4
111231476,729,36,4
111252264,64,49,4
111272036,625,4,4
111291800,1225,16,4
111313628,441,100,4
111335484,529,4,4
111355244,4,0,4
111372912,324,4,4
111392684,25,4,4
111411400,36,0,4
111430120,361,1,4
111449876,361,0,4
111469648,49,1,4
111488368,49,1,4
111507064,841,36,4
111527872,256,36,4
111548676,225,0,4
111568424,400,49,4
111589232,484,49,4
111610028,225,0,4
111629796,16,4,4
111648508,289,0,4
111668284,36,25,4
111688048,400,1,4
111707796,100,25,4
111728580,400,25,4
111749392,729,81,4
111770204,64,0,4
111788920,25,16,4
111808672,676,25,4
111829476,441,36,4
111850276,169,0,4
111870044,81,36,4
111889804,49,36,4
111909552,144,1,4
111929308,25,9,4
111948036,900,1,4
111967788,1681,144,4
111990672,2916,100,4
112013556,1296,64,4
112035396,36,9,4
112054116,25,0,4
112072840,4,0,4
112090528,4,4,4
112108188,2601,25,4
112130012,9025,361,4
112152920,2704,529,4
112175800,289,9,4
112195552,0,1,4
112213236,100,4,4
112232996,225,16,4
112253796,100,9,4
112273560,169,0,4
112293316,1,49,4
112312036,529,4,4
112331788,784,81,4
112352584,3249,49,4
112374428,5625,256,4
112397320,900,289,4
112419164,0,0,4
112436824,25,0,4
112455552,225,4,4
112475320,121,36,4
112496112,25,4,4
112514844,4,49,4
112533556,100,25,4
112554360,49,0,4
112573068,4,4,4
112590748,25,25,4
112610520,576,289,4
112632348,1521,676,4
112655228,625,324,4
112677080,36,256,4
112697896,144,289,4
112719712,4,121,4
112739484,1,25,4
112758192,16,9,4
112776912,100,4,4
112796660,196,16,4
112817484,16,4,4
112836188,36,1,4
112854916,121,4,4
112874684,4,36,4
112893404,100,4,4
112913156,81,225,4
112933960,9,256,4
112953716,1,196,4
112973472,4,100,4
112993232,4,4,4
113010916,4,144,4
113030684,0,784,4
113050424,4,64,4
113069164,1,9,4
113086844,9,0,4
113104520,16,0,4
113123236,36,49,4
113143008,1,289,4
113162760,25,400,4
113183544,196,144,4
113205392,36,121,4
113226196,1,400,4
113245964,4,16,4
113264676,9,484,4
113284436,100,196,4
113306268,64,1,4
113324992,4,0,4
113342696,121,81,4
113363480,144,441,4
113385312,36,16,4
113405084,9,361,4
113424824,256,784,4
113446676,169,529,4
113468512,16,196,4
113489316,0,25,4
113508048,1,9,4
113525712,1,81,4
113544440,1,144,4
113564212,1,36,4
113582920,36,196,4
113603720,49,16,4
113623472,0,36,4
113642200,25,49,4
113661940,225,361,4
113683800,196,441,4
113705624,144,625,4
113727464,169,576,4
113749312,361,484,4
113771156,196,196,4
113792992,0,4,4
113810680,16,4,4
113829396,0,324,4
113849148,36,169,4
113869956,64,36,4
113889704,4,196,4
113909464,0,169,4
113929236,0,225,4
113949004,121,81,4
113969788,49,400,4
113990592,0,1,4
114008284,9,289,4
114028028,0,1,4
114045700,49,1156,4
114067564,196,1600,4
114090424,100,576,4
114112264,1,100,4
114132040,16,25,4
114151796,9,256,4
114171556,100,841,4
114193392,100,169,4
114215248,81,529,4
114236024,169,484,4
114257864,196,0,4
114277640,1,400,4
114297384,25,1849,4
114319228,100,784,4
114341076,196,144,4
114362928,4,4,4
114380596,16,36,4
114400364,1,0,4
114418040,81,4,4
114436760,1,36,4
114455476,81,16,4
114475240,0,0,4
114492908,9,36,4
114511644,4,1,4
114529328,0,36,4
114548032,16,49,4
114567800,1,225,4
114587556,4,4,4
114605236,25,196,4
114626028,36,4,4
114644752,25,64,4
114664512,169,529,4
114686360,25,400,4
114707156,9,9,4
114724836,25,1,4
114743576,9,196,4
114763320,9,64,4
114782040,9,49,4
114800760,0,49,4
114819480,25,16,4
114839228,9,49,4
114857944,0,196,4
114877724,1,121,4
114897484,25,256,4
114918272,81,900,4
114939084,100,441,4
114960912,64,16,4
114980680,4,16,4
114999396,0,4,4
115017076,1,256,4
115036836,81,144,4
115057628,36,81,4
115077400,9,169,4
115097152,16,1,4
115115876,4,0,4
115133552,0,25,4
115152272,25,36,4
115172040,16,25,4
115191784,16,16,4
115211552,9,256,4
115231308,1,900,4
115251076,16,81,4
115270836,9,9,4
115288516,121,25,4
115309304,25,400,4
115330124,25,625,4
115350912,49,121,4
115371712,0,9,4
115389388,9,4,4
115407096,1,9,4
115424756,9,121,4
115444512,25,144,4
115465316,225,16,4
115486124,121,144,4
115507956,0,100,4
115527732,4,1,4
115545400,9,4,4
115563064,0,16,4
115581792,0,49,4
115600520,4,64,4
115619240,25,4,4
115637948,16,81,4
115657716,1,36,4
115676436,0,49,4
115695152,9,100,4
115714916,25,169,4
115735724,4,0,4
115753396,0,289,4
115773156,9,49,4
115791880,9,9,4
115809568,36,0,4
115828280,25,4,4
115846992,1,16,4
115865716,1,1,4
115883396,0,81,4
115902116,9,676,4
115921872,25,400,4
115942672,25,16,4
115962432,1,100,4
115982196,1,169,4
116001952,169,441,4
116023796,400,256,4
116045636,324,169,4
116067476,289,36,4
116088264,441,441,4
116110112,225,1024,4
116132988,484,6084,4
116155864,900,11236,4
116179788,225,1849,4
116202684,16,100,4
116223476,121,0,4
116243236,0,81,4
116261956,0,25,4
116280684,36,36,4
116300428,16,144,4
116321232,100,676,4
116343080,121,676,4
116364912,169,64,4
116385700,36,100,4
116406520,36,144,4
116427320,81,1,4
116446044,0,25,4
116464764,1,1,4
116482440,25,100,4
116503240,4,4,4
116520912,9,36,4
116539636,9,25,4
116558352,1,0,4
116576036,0,36,4
116594776,1,9,4
116612440,1,121,4
116632192,16,36,4
116651944,36,16,4
116671728,1,4,4
116689396,9,1,4
116707084,0,16,4
116725796,0,64,4
116744532,1,400,4
116764272,49,400,4
116785072,100,256,4
116806920,64,100,4
116827708,64,81,4
116847464,81,625,4
116868272,100,900,4
116890112,121,81,4
116910920,64,16,4
116930676,4,144,4
116950444,25,144,4
116971236,49,9,4
116989960,4,49,4
117008688,1,4,4
117026352,16,289,4
117047148,16,81,4
117066916,16,16,4
117086676,9,25,4
117105388,1,9,4
117123060,4,25,4
117141796,1,0,4
117159464,25,324,4
117180276,36,144,4
117201084,4,121,4
117220824,0,36,4
117239556,9,1,4
117257236,1,9,4
117274916,1,1,4
117292600,9,25,4
117311308,1,81,4
117330040,49,256,4
117350836,169,576,4
117372676,225,324,4
117394520,81,1,4
117413244,0,4,4
117430920,1,25,4
117449628,0,121,4
117469404,25,256,4
117490196,81,64,4
117509964,1,4,4
117527648,0,1,4
117545324,49,100,4
117566120,49,196,4
117586908,0,4,4
117604608,1,0,4
117622268,4,0,4
117639952,1,49,4
117658680,1,4,4
117676368,0,36,4
117695072,9,16,4
117713792,16,9,4
117732528,1,36,4
117751244,36,100,4
117772032,121,484,4
117793892,121,961,4
117815716,169,900,4
117837548,144,36,4
117858364,4,225,4
117878124,1,169,4
117897868,9,0,4
117915552,25,16,4
117935312,4,25,4
117954036,4,81,4
117972752,16,49,4
117992516,121,361,4
118014356,324,784,4
118036188,144,81,4
118056996,25,9,4
118075716,1,25,4
118094436,1,64,4
118113156,36,529,4
118133960,1,0,4
118151636,1,121,4
118171396,9,1,4
118189076,9,4,4
118206752,1,0,4
118224424,0,25,4
118243156,1,0,4
118260836,0,289,4
118280608,25,484,4
118301388,9,36,4
118320116,1,16,4
118338844,0,36,4
118357568,4,9,4
118375224,0,16,4
118393956,4,0,4
118411648,1,1,4
118429304,169,9,4
118449072,100,100,4
118470924,16,36,4
118490676,4,81,4
118509392,1,4,4
118527080,1,400,4
118546840,4,49,4
118565560,0,196,4
118585320,25,49,4
118605084,9,100,4
118624836,9,100,4
118644584,324,1681,4
118667472,324,3249,4
118690348,225,676,4
118712180,121,256,4
118734036,4,841,4
118753796,36,4,4
118772516,1,100,4
118792276,36,81,4
118812044,64,64,4
118831796,64,1,4
118850508,16,16,4
118870280,25,9,4
118889000,9,16,4
118907708,9,100,4
118927480,1,1,4
118945152,4,225,4
118964904,0,36,4
118983628,16,81,4
119003400,64,484,4
119024196,0,0,4
119041884,1,49,4
119060612,0,64,4
119079320,0,256,4
119099076,4,36,4
119117800,49,1,4
119136524,0,1,4
119154208,9,16,4
119172924,81,121,4
119193716,289,841,4
119215552,169,729,4
119237388,144,100,4
119259240,64,36,4
119279004,0,16,4
119297716,1,196,4
119317472,16,4,4
119336200,0,4,4
119353884,0,169,4
119373632,64,625,4
119394432,64,121,4
119415240,49,9,4
119433968,25,9,4
119452668,4,16,4
119471404,1,49,4
119490108,9,36,4
119508840,4,0,4
119526524,9,16,4
119545240,4,4,4
119562916,16,16,4
119582672,25,64,4
119602448,1,9,4
119620120,1,16,4
119638840,4,121,4
119658592,25,49,4
119678360,9,121,4
119698100,324,2809,4
119720988,529,5184,4
119743868,400,1225,4
119766752,196,4,4
119786528,4,16,4
119805248,1,1,4
119822920,0,361,4
119842668,36,484,4
119863488,49,16,4
119883236,1,25,4
119901952,16,196,4
119922752,49,49,4
119942520,1,1,4
119960200,4,0,4
119977888,0,9,4
119995564,9,196,4
120015316,49,121,4
120036108,289,49,4
120056920,81,144,2
120077720,16,36,2
120097464,0,9,2
120115140,0,36,2
120133892,9,1,2
120151564,1,16,2
120170276,9,16,2
120188996,0,0,2
120206672,1,81,2
120225396,1,324,2
120245152,81,100,2
120265960,100,4,2
120285732,1,9,2
120303392,16,196,2
120324204,1,144,2
120343972,4,49,2
120362668,25,484,2
120383464,36,484,2
120404276,25,676,2
120425076,25,81,2
120444828,25,169,2
120465644,4,49,2
120484364,0,49,2
120503080,1,36,2
120521800,16,4,2
120540516,25,9,2
120559236,0,1,2
120576920,1,9,2
120594592,1,1,2
120612272,1,100,2
120632036,9,64,2
120650748,0,196,2
120670524,16,400,2
120691316,25,16,2
120711068,4,64,2
120729796,0,0,2
120747464,25,225,2
120768268,100,529,2
120790128,81,36,2
120809876,16,25,2
120829632,0,16,2
120848348,1,121,2
120868128,4,1,2
120885804,4,49,2
120904516,9,1,2
120922208,9,81,2
120940920,4,64,2
120959636,16,36,2
120979392,49,225,2
121000188,9,484,2
121019956,64,0,2
121038680,9,1,2
121056364,64,49,2
121076116,0,121,2
121095868,9,36,2
121114588,1,16,2
121133324,0,81,2
121152040,9,361,2
121171796,49,196,2
121192604,25,81,2
121212364,16,81,2
121232124,4,4,2
121249788,4,36,2
121268520,9,0,2
121286192,64,9,2
121304908,0,169,2
121324676,16,16,2
121344436,4,64,2
121363156,9,625,2
121382916,36,36,2
121402688,9,324,2
121422432,36,576,2
121443224,49,144,2
121464040,16,16,2
121483796,25,1,2
121502512,9,1,2
121520196,0,36,2
121538928,9,225,2
121558668,25,49,2
121578420,0,121,2
121598204,4,289,2
121617968,25,49,2
121637708,169,441,2
121659556,81,36,2
121679304,9,0,2
121696984,4,625,2
121716744,9,1156,2
121737560,4,36,2
121756276,25,49,2
121776032,1,36,2
121794756,9,36,2
121813464,0,16,2
121832188,25,64,2
121851956,9,81,2
121870688,25,25,2
121890436,16,1,2
121909152,4,36,2
121927888,4,100,2
121947628,16,196,2
121968440,16,144,2
121989240,0,16,2
122007964,0,121,2
122027716,25,169,2
122048504,16,49,2
122068280,0,1,2
122085948,121,841,2
122107784,400,1296,2
122130676,225,1,2
122150444,9,169,2
122170184,16,529,2
122190988,81,3600,2
122212824,576,1600,2
122235724,225,196,2
122257560,25,225,2
122278356,36,81,2
122298108,9,0,2
122315796,16,324,2
122336600,4,324,2
122356352,0,81,2
122375072,1,36,2
122393808,1,16,2
122412516,16,36,2
122432260,144,256,2
122454124,100,441,2
122475960,49,64,2
122495712,16,121,2
122516516,0,324,2
122536276,16,49,2
122556044,1,25,2
122574748,1,25,2
122593484,36,36,2
122613232,49,144,2
122634036,1,49,2
122652760,1,1,2
122670448,0,16,2
122689156,9,1,2
122706828,36,25,2
122726604,100,729,2
122748432,81,324,2
122769228,25,16,2
122789000,9,1,2
122806676,4,36,2
122825384,4,100,2
122845140,25,9,2
122863880,0,4,2
122881568,25,25,2
122901316,0,49,2
122920040,1,4,2
122937716,1,4,2
122955392,0,4,2
122973076,16,25,2
122992836,0,16,2
123011552,1,0,2
123029228,0,0,2
123046908,9,4,2
123064604,16,36,2
123084348,0,25,2
123103076,9,9,2
123120756,4,4,2
123138448,0,0,2
123156116,1,0,2
123173788,0,4,2
123191472,1,25,2
123210188,1,0,2
123227884,4,1,2
123245556,1,1,2
123263236,0,16,2
123281952,4,25,2
123300668,4,9,2
123318364,9,0,2
123336036,4,1,2
123353720,1,0,2
123371396,0,9,2
123389084,1,25,2
123407796,9,16,2
123426516,4,16,2
123445220,25,9,2
123463956,25,1,2
123482680,1,36,2
123501400,1,16,2
123520116,0,0,2
123537800,1,1,2
123555468,0,1,2
123573152,0,4,2
123590840,4,9,2
123608516,9,1,2
123626196,1,0,2
123643864,0,9,2
123661560,0,9,2
123679232,1,16,2
123697952,9,49,2
123716684,9,16,2
123735404,4,0,2
123753076,1,0,2
123770756,0,4,2
123788436,0,25,2
123807148,0,16,2
123825868,0,4,2
123843544,0,1,2
123861236,0,4,2
123878916,0,16,2
123897628,0,0,2
123915328,1,1,2
123932996,1,0,2
123950668,0,4,2
123968348,0,0,2
123986044,0,9,2
124003720,1,0,2
124021388,1,0,2
124039068,0,0,2
124056752,0,4,2
124074432,0,9,2
124092108,0,0,2
124109780,0,0,2
124127488,1,0,2
124145156,0,1,2
124162844,1,0,2
124180520,1,0,2
124198196,0,9,2
124215868,1,4,2
124233556,0,1,2
124251232,0,9,2
124268928,0,49,2
124287636,0,9,2
124305316,1,1,2
124322996,0,1,2
124340672,1,4,2
124358356,0,1,2
124376020,0,0,2
124393712,0,0,2
124411396,0,1,2
124429068,0,0,2
124446756,0,0,2
124464428,0,1,2
124482120,0,1,2
124499788,0,1,2
124517476,0,1,2
124535160,1,1,2
124552832,0,0,2
124570516,0,4,2
124588200,0,1,2
124605876,0,0,2
124623548,0,4,2
124641220,0,0,2
124658916,1,9,2
124676596,0,4,2
124694276,1,0,2
124711952,0,4,2
124729636,0,0,2
124747320,1,1,2
124765000,1,4,2
124782684,0,1,2
124800356,0,0,2
124818036,1,0,2
124835720,1,16,2
124854440,0,4,2
124872108,0,1,2
124889792,0,16,2
124908504,1,25,2
124927244,1,1,2
124944928,1,0,2
124962588,0,0,2
124980280,0,4,2
124997952,0,4,2
125015636,1,4,2
125033308,0,1,2
125050996,0,0,2
125068676,0,1,2
125086356,0,0,2
125104028,0,0,2
125121720,1,1,2
125139396,1,1,2
125157076,0,9,2
125174748,0,0,2
125192444,1,0,2
125210120,0,1,2
125227784,0,0,2
125245476,0,0,2
125263156,0,0,2
125280832,0,1,2
125298516,1,25,2
125317248,0,16,2
125335952,1,0,2
125353636,1,0,2
125371316,1,1,2
125388996,0,4,2
125406672,0,1,2
125424360,0,1,2
125442024,0,0,2
125459728,1,0,2
125477404,0,0,2
125495068,0,9,2
125512752,0,9,2
125530444,0,1,2
125548116,0,0,2
125565792,0,9,2
125583476,0,36,2
125602196,0,16,2
125620916,0,0,2
125638596,0,4,2
125656280,0,4,2
125673956,0,4,2
125691632,0,1,2
125709316,0,1,2
125727004,0,0,2
125744688,0,4,2
125762364,0,9,2
125780040,0,0,2
125797720,1,1,2
125815392,0,4,2
125833068,4,36,2
125851796,9,100,2
125871556,1,36,2
125890276,4,0,2
125907948,0,0,2
125925640,1,0,2
125943324,0,1,2
125960984,1,4,2
125978676,0,1,2
125996352,0,0,2
126014028,0,4,2
126031708,1,16,2
126050436,9,25,2
126069156,4,9,2
126086832,1,4,2
126104508,0,49,2
126123244,0,4,2
126140920,0,16,2
126159628,0,9,2
126177316,1,4,2
126195000,1,0,2
126212668,0,0,2
126230348,0,0,2
126248032,0,1,2
126265716,0,4,2
126283400,1,36,2
126302112,1,1,2
126319796,4,16,2
126338512,0,9,2
126356200,9,4,2
126373872,0,1,2
126391556,0,1,2
126409232,0,4,2
126426904,0,1,2
126444600,1,1,2
126462276,0,0,2
126479952,1,0,2
126497628,1,0,2
126515332,1,1,2
126533000,1,1,2
126550676,0,0,2
126568348,0,1,2
126586048,1,0,2
126603720,1,0,2
126621400,1,1,2
126639068,0,4,2
126656756,0,0,2
126674428,0,0,2
126692116,0,1,2
126709792,0,0,2
126727480,1,1,2
126745160,1,4,2
126762840,0,1,2
126780516,0,0,2
126798200,0,1,2
126815868,0,0,2
126833556,0,0,2
126851232,0,0,2
126868908,0,0,2
126886596,0,4,2
126904268,0,0,2
126921964,0,4,2
126939628,0,16,2
126958360,0,16,2
126977072,0,0,2
126994756,0,4,2
127012440,1,1,2
127030108,0,9,2
127047796,0,4,2
127065472,1,4,2
127083144,0,16,2
127101872,0,1,2
127119552,0,4,2
127137228,0,25,2
127155960,0,4,2
127173620,0,0,2
127191316,1,1,2
127209004,1,1,2
127226668,1,9,2
127244356,1,9,2
127262036,0,0,2
127279708,0,0,2
127297396,0,16,2
127316124,1,1,2
127333812,1,9,2
127351468,0,1,2
127369144,1,1,2
127386832,0,0,2
127404516,0,0,2
127422200,0,0,2
127439868,0,0,2
127457560,0,9,2
127475240,0,36,2
127493952,0,1,2
127511632,0,0,2
127529320,0,0,2
127546996,0,1,2
127564676,0,25,2
127583396,0,4,2
127601064,0,0,2
127618744,0,0,2
127636428,0,0,2
127654128,0,4,2
127671792,0,0,2
127689472,0,1,2
127707160,0,1,2
127724840,1,0,2
127742516,1,0,2
127760200,0,1,2
127777876,0,0,2
127795556,0,9,2
127813236,0,4,2
127830916,1,0,2
127848596,1,16,2
127867316,0,4,2
127884984,0,4,2
127902668,0,1,2
127920352,0,0,2
127938024,0,0,2
127955716,0,0,2
127973400,0,9,2
127991072,0,0,2
128008756,1,4,2
128026436,1,1,2
128044112,0,0,2
128061796,0,0,2
128079480,0,1,2
128097152,4,9,2
128114852,4,4,2
128132520,4,16,2
128151228,0,9,2
128168908,0,4,2
128186592,0,0,2
128204276,0,9,2
128221960,0,144,2
128241716,9,121,2
128261484,16,4,2
128280196,4,0,2
128297872,1,64,2
128316604,25,169,2
128337396,25,100,2
128358188,4,9,2
128375880,0,1,2
128393556,0,0,2
128411224,0,4,2
128428908,4,36,2
128447640,1,25,2
128466352,0,4,2
128484028,0,0,2
128501712,0,0,2
128519392,0,0,2
128537072,0,1,2
128554752,0,9,2
128572436,0,49,2
128591164,0,1,2
128608828,0,49,2
128627544,1,36,2
128646276,1,1,2
128663964,0,0,2
128681632,1,0,2
128699312,1,0,2
128716996,1,0,2
128734668,0,0,2
128752348,0,1,2
128770032,4,1,2
128787716,1,0,2
128805392,0,4,2
128823068,1,0,2
128840756,0,4,2
128858448,1,1,2
128876108,4,1,2
128893788,4,0,2
128911476,25,4,2
128930196,4,0,2
128947880,1,9,2
128965548,25,64,2
128985312,16,36,2
129005072,9,9,2
129022744,0,1,2
129040436,0,1,2
129058128,1,1,2
129075788,1,4,2
129093480,1,1,2
129111156,0,0,2
129128844,4,1,2
129146520,4,1,2
129164188,0,0,2
129181884,1,9,2
129199552,0,0,2
129217228,0,0,2
129234904,0,0,2
129252608,1,4,2
129270280,1,0,2
129287956,0,9,2
129305636,0,9,2
129323316,0,0,2
129340992,0,25,2
129359712,9,100,2
129379488,9,25,2
129398196,4,0,2
129415880,0,1,2
129433540,0,9,2
129451248,1,9,2
129468920,1,4,2
129486600,1,0,2
129504280,0,0,2
129521952,0,0,2
129539632,4,1,2
129557304,0,16,2
129576036,1,1,2
129593716,1,1,2
129611396,1,25,2
129630112,0,1,2
129647812,1,16,2
129666520,0,1,2
129684184,0,49,2
129702908,1,144,2
129722676,25,16,2
129742432,25,1,2
129761152,0,0,2
129778832,0,4,2
129796516,0,1,2
129814200,1,1,2
129831868,0,0,2
129849564,9,0,2
129867240,1,1,2
129884920,1,4,2
129902588,1,0,2
129920280,0,4,2
129937956,0,0,2
129955640,0,1,2
129973312,0,0,2
129991000,0,4,2
130008664,0,9,2
130026348,1,0,2
130044040,9,9,2
130061724,1,9,6
130079388,0,4,6
130097060,0,4,6
130114764,0,49,6
130133476,0,4,6
130151148,0,0,6
130168824,0,9,6
130186512,1,0,6
130204192,0,0,6
130221876,1,4,6
130239556,4,16,6
130258276,9,9,6
130275952,9,9,6
130293628,4,4,6
130311320,0,0,6
130329008,1,1,6
130346680,4,9,6
130364348,1,0,6
130382032,0,4,6
130399708,0,1,6
130417388,0,0,6
130435064,4,0,6
130452752,0,1,6
130470436,0,0,6
130488120,9,9,6
130505808,1,4,6
130523476,0,1,6
130541148,0,0,6
130558832,0,1,6
130576520,1,0,6
130594192,1,0,6
130611864,1,0,6
130629544,0,0,6
130647240,0,0,6
130664916,1,0,6
130682596,4,4,6
130700272,1,4,6
130717956,0,1,6
130735644,0,0,6
130753320,0,4,6
130771004,1,0,6
130788680,0,1,6
130806348,0,0,6
130824040,1,16,6
130842756,1,25,6
130861484,1,1,6
130879156,1,0,6
130896828,0,0,6
130914516,0,0,6
130932200,0,9,6
130949880,4,36,6
130968596,9,9,6
130986276,9,9,6
131003960,4,0,6
131021640,1,1,6
131039316,0,1,6
131057004,1,49,6
131075712,9,64,6
131094428,9,25,6
131113160,1,0,6
131130836,0,0,6
131148512,0,4,6
131166192,1,0,6
131183872,0,0,6
131201556,0,1,6
131219228,0,4,6
131236924,1,16,6
131255640,1,0,6
131273304,0,0,6
131290988,0,0,6
131308676,1,0,6
131326360,9,1,6
131344028,4,4,6
131361712,1,4,6
131379392,0,0,6
131397064,0,0,6
131414752,4,9,6
131432424,0,1,6
131450116,0,0,6
131467796,0,0,6
131485468,0,4,6
131503156,1,0,6
131520832,1,1,6
131538512,1,0,6
131556196,0,0,6
131573884,0,0,6
131591564,0,0,6
131609240,0,1,6
131626912,0,4,6
131644596,0,0,6
131662280,1,0,6
131679960,0,0,6
131697624,0,1,6
131715324,0,1,6
131732996,0,4,6
131750672,0,1,6
131768364,1,0,6
131786040,1,9,6
131803708,0,0,6
131821396,1,4,6
131839076,0,1,6
131856748,0,0,6
131874420,0,0,6
131892100,0,0,6
131909796,0,9,6
131927484,4,1,6
131945160,9,1,6
131962820,0,0,6
131980512,1,0,6
131998184,1,36,6
132016916,9,144,6
132036680,9,9,6
132054364,4,4,6
132072028,0,4,6
132089720,0,1,6
132107400,4,1,6
132125080,0,49,6
132143792,0,36,6
132162500,1,0,6
132180200,4,1,6
132197868,16,1,6
132216584,25,16,6
132236364,1,16,6
132255084,16,0,6
132273784,49,9,6
132292508,9,4,6
132310204,4,1,6
132327880,4,0,6
132345544,0,0,6
132363232,4,4,6
132380916,64,0,6
132399636,324,4,6
132419384,196,16,6
132440204,49,1,6
132458928,49,4,6
