Timestamp (micros),Sensor1 (mV),Sensor2 (mV),Label
53864,9025,3136,2
56088,441,169,2
58224,100,121,2
61716,324,400,2
79404,324,121,2
97068,0,64,2
111632,144,121,2
130356,64,16,2
146996,9,49,2
162592,25,16,2
179240,0,25,2
194836,49,49,2
211480,16,1,2
227080,16,9,2
242668,16,25,2
259320,0,9,2
273872,16,4,2
289464,1,0,2
304036,1,9,2
318608,4,4,2
333164,1,1,2
347708,9,4,2
362268,0,0,2
376840,0,4,2
391396,1,0,2
405948,0,1,2
420520,4,0,2
435068,0,0,2
449636,0,1,2
464192,1,0,2
478768,0,0,2
493320,1,1,2
507860,1,0,2
522448,4,1,2
537008,0,1,2
551560,1,1,2
566112,1,0,2
580692,1,1,2
595244,1,0,2
609784,1,0,2
624356,1,0,2
638904,0,0,2
653476,0,0,2
668036,1,0,2
682600,0,0,2
697160,0,1,2
711716,0,1,2
726276,1,1,2
740840,0,0,2
755384,0,0,2
769952,0,4,2
784516,0,1,2
799080,0,1,2
813640,1,1,2
828200,1,0,2
842744,0,0,2
857316,0,0,2
871872,0,1,2
886428,0,0,2
900996,1,0,2
915564,1,1,2
930124,0,0,2
944676,0,0,2
959236,1,0,2
973792,0,0,2
988356,0,1,2
1002920,0,1,2
1018512,0,1,2
1034104,0,0,2
1049716,1,4,2
1065316,0,9,2
1080916,1,0,2
1096516,1,0,2
1112116,0,0,2
1127716,0,1,2
1143312,0,0,2
1158920,0,0,2
1174508,1,0,2
1190116,0,0,2
1205708,0,0,2
1221316,0,0,2
1236912,0,1,2
1252520,0,1,2
1268116,0,0,2
1283716,1,0,2
1299316,1,0,2
1314920,1,1,2
1330516,0,0,2
1346104,0,0,2
1361704,0,0,2
1377316,0,0,2
1392916,0,0,2
1408520,0,1,2
1424120,0,0,2
1439704,0,1,2
1455316,0,1,2
1470908,0,0,2
1486504,0,0,2
1502108,0,1,2
1517716,0,0,2
1533316,0,1,2
1548912,0,4,2
1564520,1,0,2
1580120,0,1,2
1595724,0,0,2
1611312,0,1,2
1626908,0,0,2
1642508,0,0,2
1658120,0,1,2
1673716,1,4,2
1689304,0,0,2
1704912,0,4,2
1720516,0,0,2
1736120,1,1,2
1751708,0,4,2
1767304,0,0,2
1782924,0,0,2
1798528,0,0,2
1814108,0,0,2
1829708,0,1,2
1845324,1,0,2
1860928,1,0,2
1876520,0,0,2
1892108,0,0,2
1907708,1,0,2
1923316,0,0,2
1938916,1,1,2
1954520,0,4,2
1970100,0,0,2
1985716,0,0,2
2001316,0,4,2
2016920,1,1,2
2032520,0,1,2
2048116,1,0,2
2063716,0,1,2
2079316,1,0,2
2094908,1,1,2
2110516,4,0,2
2126120,0,1,2
2141720,0,1,2
2157308,0,0,2
2172900,1,4,2
2188516,1,1,2
2204104,4,0,2
2219720,1,0,2
2235312,0,0,2
2250916,0,0,2
2266512,0,0,2
2282108,0,1,2
2297720,0,1,2
2313316,0,1,2
2328916,0,0,2
2344508,0,0,2
2360120,0,1,2
2375716,0,0,2
2391316,0,0,2
2406916,0,0,2
2422512,0,0,2
2438112,0,4,2
2453712,0,0,2
2469308,1,0,2
2484916,0,1,2
2500512,0,1,2
2516116,0,0,2
2531720,1,1,2
2547312,0,1,2
2562912,0,1,2
2578516,0,4,2
2594120,1,16,2
2610756,4,4,2
2626356,9,0,2
2641956,0,4,2
2657560,0,0,2
2673160,0,25,2
2689792,0,9,2
2705392,1,0,2
2720996,1,0,2
2736596,4,1,2
2752188,0,0,2
2767784,0,4,2
2783400,0,4,2
2799008,0,0,2
2814588,0,0,2
2830188,0,1,2
2845796,0,4,2
2861396,0,1,2
2876988,0,1,2
2892596,1,4,2
2908196,1,0,2
2923804,0,0,2
2939396,0,9,2
2954996,1,4,2
2970592,1,0,2
2986196,0,0,2
3001788,0,9,2
3017396,1,4,2
3032984,0,0,2
3048596,0,0,2
3064192,0,0,2
3079800,0,1,2
3095396,0,0,2
3110996,0,4,2
3126600,0,1,2
3142188,0,0,2
3157792,1,0,2
3173396,1,0,2
3188996,1,4,2
3204600,1,1,2
3220188,0,1,2
3235792,0,0,2
3251396,0,0,2
3266992,0,0,2
3282596,0,0,2
3298188,0,0,2
3313796,0,0,2
3329400,1,0,2
3344988,0,0,2
3360588,0,1,2
3376204,0,0,2
3391796,0,0,2
3407404,4,0,2
3422996,1,0,2
3438580,1,0,2
3454200,0,1,2
3469788,0,0,2
3485388,1,0,2
3500992,0,0,2
3516600,1,0,2
3532208,1,1,2
3547788,0,0,2
3563396,0,0,2
3579004,0,0,2
3594604,0,0,2
3610196,1,0,2
3625788,1,0,2
3641396,0,0,2
3656996,0,0,2
3672596,0,0,2
3688188,0,0,2
3703784,0,1,2
3719400,0,1,2
3734984,0,0,2
3750588,0,4,2
3766184,0,0,2
3781796,0,1,2
3797400,0,0,2
3812984,0,0,2
3828592,0,1,2
3844192,0,0,2
3859796,1,1,2
3875400,1,0,2
3890988,0,0,2
3906596,0,1,2
3922200,0,1,2
3937796,1,0,2
3953400,1,1,2
3968988,4,4,2
3984604,1,0,2
4000200,1,1,2
4015796,1,1,2
4031392,1,1,2
4047000,1,0,2
4062592,0,0,2
4078184,1,0,2
4093788,0,1,2
4109396,0,0,2
4124992,0,0,2
4140592,1,0,2
4156192,0,4,2
4171796,0,0,2
4187396,0,4,2
4202984,0,0,2
4218592,0,1,2
4234192,0,0,2
4249792,1,0,2
4265400,1,1,2
4280988,0,1,2
4296600,0,4,2
4312196,0,1,2
4327800,0,0,2
4343392,0,1,2
4358988,0,1,2
4374608,0,0,2
4390196,0,0,2
4405792,0,0,2
4421396,0,4,2
4436996,1,0,2
4452600,0,0,2
4468196,1,0,2
4483796,1,0,2
4499388,0,0,2
4514992,0,0,2
4530588,0,1,2
4546200,0,0,2
4561788,0,0,2
4577400,0,1,2
4592996,0,0,2
4608600,0,0,2
4624196,0,0,2
4639800,0,4,2
4655396,0,0,2
4670996,0,0,2
4686592,0,4,2
4702192,0,1,2
4717804,0,0,2
4733388,0,0,2
4749000,1,1,2
4764588,1,0,2
4780196,0,0,2
4795800,0,4,2
4811388,0,4,2
4826992,0,1,2
4842596,0,1,2
4858200,0,1,2
4873788,0,1,2
4889384,0,0,2
4904992,1,0,2
4920600,0,1,2
4936196,0,0,2
4951788,1,0,2
4967392,0,0,2
4982992,1,0,2
4998588,0,0,2
5014200,1,1,2
5029788,0,1,2
5045396,0,0,2
5060996,0,1,2
5076588,0,0,2
5092200,0,0,2
5107796,0,0,2
5123396,1,0,2
5138992,0,1,2
5154588,0,0,2
5170192,1,0,2
5185800,0,1,2
5201392,0,0,2
5216984,1,0,2
5232584,4,1,2
5248200,4,1,2
5263796,1,0,2
5279388,0,1,2
5295000,0,0,2
5310600,0,1,2
5326196,0,1,2
5341796,0,0,2
5357396,0,1,2
5372996,0,0,2
5388596,0,0,2
5404196,0,0,2
5419784,0,0,2
5435396,1,0,2
5451000,0,1,2
5466588,0,0,2
5482196,1,0,2
5497792,1,0,2
5513400,0,0,2
5528996,0,1,2
5544584,0,0,2
5560188,0,4,2
5575800,0,0,2
5591396,0,1,2
5606988,0,0,2
5622588,0,1,2
5638200,0,1,2
5653800,0,1,2
5669396,0,4,2
5684988,0,0,2
5700584,0,0,2
5716204,1,0,2
5731800,0,0,2
5747392,0,1,2
5762980,0,0,2
5778604,1,0,2
5794204,0,1,2
5809788,0,9,2
5825388,1,0,2
5840996,1,1,2
5856608,1,4,2
5872204,1,1,2
5887788,0,0,2
5903400,1,1,2
5918996,0,0,2
5934584,0,0,2
5950188,0,0,2
5965784,1,1,2
5981396,0,1,2
5996988,0,0,2
6012584,1,0,2
6028188,1,0,2
6043792,0,0,2
6059400,0,4,2
6074992,0,1,2
6090588,0,1,2
6106192,0,0,2
6121792,0,0,2
6137396,1,0,2
6152996,1,0,2
6168596,4,0,2
6184196,1,1,2
6199788,0,4,2
6215396,0,0,2
6230980,0,1,2
6246596,0,0,2
6262188,0,0,2
6277800,0,1,2
6293396,1,0,2
6308992,0,0,2
6324600,0,1,2
6340188,0,0,2
6355800,1,1,2
6371392,0,0,2
6386996,0,1,2
6402592,0,0,2
6418188,0,0,2
6433796,0,1,2
6449396,0,0,2
6464996,1,0,2
6480596,0,1,2
6496188,1,0,2
6511796,0,0,2
6527392,0,0,2
6542988,1,0,2
6558588,0,0,2
6574208,1,0,2
6589796,0,1,2
6605392,0,0,2
6620992,0,1,2
6636600,0,9,2
6652208,1,0,2
6667792,0,0,2
6683388,0,0,2
6698984,4,1,2
6714596,4,0,2
6730188,0,1,2
6745788,0,0,2
6761380,1,0,2
6776992,0,4,2
6792592,0,0,2
6808188,0,0,2
6823788,1,0,2
6839392,0,0,2
6855000,0,9,2
6870600,4,9,2
6886196,1,0,2
6901792,0,0,2
6917400,1,0,2
6932988,0,0,2
6948592,0,1,2
6964184,0,1,2
6979796,0,0,2
6995400,0,1,2
7010988,0,0,2
7026588,4,0,2
7042196,0,0,2
7057796,0,0,2
7073388,0,0,2
7088988,1,0,2
7104600,0,0,2
7120196,0,0,2
7135788,0,0,2
7151392,0,0,2
7167000,0,1,2
7182596,0,0,2
7198200,0,1,2
7213796,0,0,2
7229384,0,1,2
7244996,1,0,2
7260600,1,1,2
7276188,0,0,2
7291788,0,0,2
7307392,0,0,2
7322996,1,0,2
7338592,0,4,2
7354196,1,0,2
7369796,0,0,2
7385396,1,1,2
7401008,0,1,2
7416596,0,0,2
7432180,0,0,2
7447796,1,0,2
7463388,0,0,2
7478988,0,0,2
7494592,0,1,2
7510196,0,1,2
7525800,0,4,2
7541396,0,0,2
7556988,0,0,2
7572600,0,1,2
7588192,0,0,2
7603788,0,4,2
7619388,0,4,2
7635008,0,1,2
7650596,0,0,2
7666200,0,1,2
7681788,0,0,2
7697388,1,0,2
7712996,0,1,2
7728588,0,0,2
7744188,0,0,2
7759780,0,0,2
7775396,0,0,2
7790996,0,1,2
7806596,0,0,2
7822196,0,1,2
7837808,0,1,2
7853396,0,0,2
7868992,0,1,2
7884584,0,0,2
7900192,1,0,2
7915800,0,1,2
7931384,0,0,2
7946988,0,1,2
7962580,0,0,2
7978196,0,1,2
7993788,1,0,2
8009388,0,0,2
8024988,1,0,2
8040592,1,0,2
8056196,0,1,2
8071788,0,0,2
8087388,0,0,2
8102996,0,4,2
8118600,0,1,2
8134200,0,0,2
8149788,0,0,2
8165396,0,1,2
8180996,0,0,2
8196588,0,0,2
8212196,1,0,2
8227780,0,0,2
8243396,0,1,2
8258988,0,4,2
8274600,0,0,2
8290188,0,0,2
8305792,0,0,2
8321396,0,0,2
8336988,1,0,2
8352596,1,0,2
8368196,1,0,2
8383796,1,0,2
8399404,1,0,2
8414996,4,0,2
8430588,0,0,2
8446192,1,0,2
8461788,4,1,2
8477388,9,4,2
8492992,1,0,2
8508596,0,1,2
8524196,0,0,2
8539784,0,0,2
8555400,0,1,2
8571004,1,0,2
8586608,1,0,2
8602188,0,0,2
8617796,0,0,2
8633404,0,0,2
8649000,0,1,2
8664596,0,0,2
8680188,0,0,2
8695784,0,1,2
8711396,1,0,2
8726992,4,1,2
8742596,1,0,2
8758192,0,1,2
8773804,0,0,2
8789396,0,1,2
8804992,0,1,2
8820596,1,4,2
8836204,1,1,2
8851808,0,1,2
8867392,0,1,2
8882984,0,0,2
8898596,4,0,2
8914200,0,1,2
8929796,0,0,2
8945388,0,0,2
8960980,0,0,2
8976596,0,4,2
8992196,0,1,2
9007788,0,0,2
9023388,0,0,2
9039004,1,0,2
9054604,0,0,2
9070188,0,0,2
9085800,0,4,2
9101400,0,0,2
9116996,0,1,2
9132592,0,0,2
9148188,0,0,2
9163796,0,0,2
9179396,0,0,2
9194996,0,0,2
9210596,0,0,2
9226188,0,0,2
9241796,0,0,2
9257384,0,0,2
9272992,0,1,2
9288596,1,1,2
9304196,0,1,2
9319792,0,0,2
9335388,0,1,2
9351000,0,0,2
9366596,0,1,2
9382196,0,1,2
9397808,0,0,2
9413396,0,0,2
9428984,0,1,2
9444596,0,0,2
9460200,4,0,2
9475800,4,1,2
9491380,0,0,2
9506996,0,1,2
9522596,0,1,2
9538192,0,1,2
9553796,0,0,2
9569404,0,0,2
9584996,0,0,2
9600584,1,0,2
9616184,0,0,2
9631796,0,0,2
9647396,0,0,2
9662996,0,1,2
9678588,0,0,2
9694188,1,0,2
9709796,0,1,2
9725400,0,1,2
9740988,0,1,2
9756580,0,0,2
9772196,0,1,2
9787796,0,1,2
9803388,0,1,2
9818992,0,1,2
9834608,0,0,2
9850196,1,0,2
9865788,0,1,2
9881392,0,1,2
9897004,0,0,2
9912600,0,4,2
9928196,1,0,2
9943796,1,0,2
9959388,1,0,2
9974996,1,0,2
9990588,0,1,2
10006184,0,0,2
10022820,0,0,2
10039476,0,0,2
10056116,0,0,5
10072756,0,1,5
10089380,0,0,5
10106036,1,0,5
10122676,1,0,5
10139304,0,0,5
10155948,1,0,5
10172600,0,0,5
10189236,0,0,5
10205868,0,1,5
10222500,0,0,5
10239156,1,0,5
10255788,0,0,5
10272428,0,0,5
10289056,0,0,5
10305712,1,0,5
10322344,0,0,5
10338988,0,1,5
10355636,0,0,5
10372288,0,1,5
10388908,0,0,5
10405560,1,0,5
10422180,0,0,5
10438836,1,0,5
10455468,0,0,5
10472108,0,1,5
10488740,0,0,5
10505396,0,0,5
10522028,0,0,5
10538664,0,0,5
10555300,1,0,5
10571952,1,0,5
10588584,4,0,5
10605236,1,0,5
10621860,0,0,5
10638516,4,0,5
10655160,1,0,5
10671788,0,0,5
10688416,0,0,5
10705068,0,1,5
10721712,1,0,5
10738348,0,0,5
10754992,0,0,5
10771648,0,0,5
10788268,0,0,5
10804908,0,1,5
10821540,0,0,5
10838196,1,0,5
10854824,0,1,5
10871472,4,1,5
10888108,4,1,5
10904756,0,0,5
10921400,0,0,5
10938044,1,0,5
10954668,1,0,5
10971324,0,1,5
10987952,25,0,5
11005628,9,9,5
11022260,0,0,5
11038916,9,0,5
11055544,0,0,5
11072196,4,9,5
11088828,169,25,5
11108592,729,0,5
11127316,196,9,5
11146040,9,1,5
11162688,0,9,5
11179320,64,16,5
11198028,169,1,5
11216760,9,9,5
11233400,25,9,5
11251092,16,16,5
11269792,0,0,5
11286432,1,16,5
11304124,0,64,5
11321800,4,36,5
11339468,4,25,5
11357144,49,1,5
11374832,64,225,5
11394600,25,256,5
11414352,144,9,5
11433072,16,324,5
11452836,121,729,5
11473628,121,576,5
11494448,169,225,5
11515240,121,25,5
11534996,144,121,5
11555788,196,441,5
11576592,25,289,5
11596360,0,529,5
11615084,49,784,5
11634836,64,25,5
11653552,16,64,5
11672268,64,324,5
11692024,16,841,5
11711796,9,144,5
11730512,196,1,5
11749240,49,36,5
11767956,0,100,5
11786668,25,144,5
11806440,49,169,5
11826196,9,49,5
11843880,4,1,5
11860528,4,1,5
11877160,0,16,5
11894844,9,1,5
11911476,25,81,5
11930192,1,324,5
11948900,4,144,5
11967640,25,484,5
11987392,9,16,5
12005068,81,0,5
12022756,36,36,5
12041476,0,225,5
12060196,100,49,5
12079944,324,256,5
12100756,324,576,5
12121544,196,225,5
12142352,121,36,5
12162120,9,100,5
12180832,16,144,5
12200596,121,81,5
12220340,64,25,5
12239080,64,36,5
12257796,64,121,5
12277540,16,121,5
12297316,100,64,5
12317080,81,49,5
12335796,9,49,5
12353468,16,4,5
12371148,144,144,5
12391960,25,100,5
12411724,25,25,5
12430440,9,256,5
12449160,25,81,5
12467880,4,16,5
12485544,9,441,5
12504284,1,576,5
12522988,100,256,5
12543796,256,36,5
12563564,81,49,5
12582280,0,25,5
12599956,36,196,5
12619712,36,729,5
12639476,1,169,5
12658208,4,4,5
12674844,4,1,5
12691488,9,9,5
12708112,36,256,5
12727876,9,225,5
12746592,4,0,5
12763240,1,0,5
12779896,9,1,5
12796512,0,1,5
12813152,9,1,5
12829800,36,9,5
12847472,25,289,5
12867236,196,529,5
12888020,256,25,5
12907800,196,4,5
12926520,4,0,5
12943156,36,81,5
12961876,49,25,5
12980604,25,25,5
12999308,144,841,5
13020100,196,576,5
13040912,225,324,5
13061708,81,529,5
13081476,16,36,5
13100204,9,36,5
13117872,16,256,5
13137632,49,49,5
13156360,64,9,5
13174040,25,64,5
13192744,9,289,5
13211476,49,484,5
13231232,36,144,5
13251000,49,196,5
13270744,100,441,5
13291560,25,196,5
13311328,16,0,5
13328988,4,0,5
13345632,25,144,5
13365408,225,225,5
13386188,400,49,5
13405956,225,1,5
13424680,4,121,5
13443396,81,484,5
13463160,100,361,5
13483956,36,36,5
13502680,100,121,5
13523484,25,400,5
13543232,100,484,5
13564040,121,400,5
13584836,16,1,5
13602504,4,36,5
13620188,0,0,5
13636836,0,25,5
13654516,4,144,5
13673228,0,25,5
13690920,0,36,5
13708608,0,121,5
13727316,9,64,5
13744984,4,4,5
13761640,36,1,5
13779320,121,16,5
13799076,81,1,5
13816740,49,4,5
13834440,1,256,5
13853148,36,225,5
13872916,64,36,5
13891636,64,0,5
13909320,100,64,5
13929076,4,225,5
13947796,25,64,5
13966520,25,4,5
13984192,4,49,5
14001868,25,16,5
14020596,49,0,5
14038280,16,9,5
14055964,0,4,5
14072604,4,1,5
14089232,144,36,5
14108996,144,0,5
14127720,9,144,5
14146436,0,49,5
14164116,0,1,5
14180764,36,4,5
14198436,256,121,5
14219224,81,100,5
14239000,9,36,5
14256680,4,81,5
14274344,0,81,5
14292040,16,196,5
14311796,64,64,5
14330524,49,1,5
14348192,4,0,5
14364836,0,0,5
14381484,0,0,5
14398112,4,36,5
14415780,0,64,5
14433480,0,36,5
14451152,25,36,5
14469876,49,0,5
14487548,4,25,5
14505236,4,4,5
14521888,9,1,5
14538508,0,1,5
14555160,9,4,5
14571792,4,36,5
14589484,9,196,5
14608188,25,36,5
14626916,16,4,5
14644608,1,25,5
14662268,4,4,5
14678916,0,1,5
14695560,49,36,5
14714280,25,25,5
14733000,0,9,5
14749628,4,25,5
14767312,16,1,5
14784996,4,0,5
14801624,16,0,5
14819304,25,0,5
14837000,1,169,5
14855724,0,441,5
14874436,16,144,5
14894196,16,9,5
14911876,4,0,5
14928516,1,4,5
14945164,1,4,5
14961816,1,25,5
14979472,4,225,5
14998192,4,64,5
15015872,0,36,5
15033560,16,16,5
15052276,36,64,5
15070996,0,196,5
15089720,9,25,5
15107404,16,1,5
15125088,25,1,5
15142748,9,16,5
15160440,9,4,5
15177080,64,144,5
15196828,4,121,5
15215548,9,16,5
15233232,0,49,5
15250912,4,196,5
15269636,25,4,5
15287316,9,1,5
15303960,16,49,5
15322672,1,49,5
15340352,16,100,5
15360128,4,25,5
15377804,4,9,5
15394436,4,4,5
15411072,1,4,5
15427724,1,0,5
15444368,1,1,5
15460996,9,1,5
15477636,16,16,5
15496368,1,1,5
15512996,0,36,5
15530676,1,64,5
15548352,4,36,5
15566044,1,4,5
15582660,1,16,5
15600340,1,49,5
15618028,1,16,5
15635720,9,1,5
15652356,4,0,5
15669000,0,4,5
15685620,0,64,5
15703320,0,121,5
15722036,1,4,5
15738672,0,0,5
15755328,1,25,5
15772996,1,9,5
15789632,0,289,5
15808360,36,196,5
15828124,49,36,5
15846828,0,4,5
15863480,1,1,5
15880100,0,9,5
15896756,9,0,5
15913388,4,16,5
15931072,0,4,5
15947700,0,36,5
15965392,0,100,5
15984124,1,0,5
16000752,0,4,5
16017396,4,4,5
16034052,1,25,5
16051716,4,64,5
16069400,0,4,5
16086036,4,0,5
16102680,0,9,5
16119328,4,9,5
16135956,1,36,5
16153644,0,4,5
16170288,0,25,5
16187952,0,9,5
16204600,0,4,5
16221244,0,9,5
16237888,0,0,5
16254520,1,1,5
16271148,0,25,5
16288844,0,49,5
16306524,1,49,5
16324184,1,121,5
16342916,0,121,5
16361636,4,4,5
16378280,1,9,5
16394904,0,0,5
16411548,0,16,5
16429240,0,4,5
16445884,0,0,5
16462512,0,4,5
16479152,0,0,5
16495804,4,36,5
16513472,1,144,5
16532188,4,100,5
16550896,9,25,5
16568596,1,4,5
16585244,0,4,5
16601872,0,4,5
16618516,1,1,5
16635156,4,1,5
16651792,9,9,5
16668432,9,9,5
16685080,0,4,5
16701716,0,16,5
16719408,4,4,5
16736028,0,9,5
16752676,0,9,5
16769324,1,4,5
16785968,0,0,5
16802596,4,1,5
16819252,1,1,5
16835880,0,4,5
16852524,1,9,5
16869144,4,9,5
16885800,0,4,5
16902436,4,4,5
16919084,1,1,5
16935716,1,81,5
16953404,1,25,5
16971088,9,1,5
16987716,0,16,5
17005392,1,1,5
17022040,0,4,5
17038676,0,16,5
17056356,1,9,5
17072988,4,4,5
17089636,0,4,5
17106276,9,16,5
17123956,4,64,5
17141636,9,1,5
17158284,9,1,5
17174916,0,1,5
17191552,9,9,5
17208192,9,36,5
17225876,9,16,5
17243556,4,0,5
17260184,0,0,5
17276824,0,0,5
17293476,0,25,5
17311144,1,36,5
17328832,0,1,5
17345464,0,1,5
17362116,0,4,5
17378752,0,0,5
17395392,4,16,5
17413076,16,4,5
17430760,1,0,5
17447392,0,9,5
17464028,0,16,5
17481704,0,1,5
17498360,0,1,5
17514988,0,1,5
17531640,1,100,5
17550372,0,169,5
17569076,16,64,5
17587788,36,100,5
17607548,16,100,5
17627320,1,0,5
17643960,1,9,5
17660596,0,16,5
17678272,9,36,5
17695956,9,4,5
17712592,25,4,5
17730284,25,25,5
17749004,1,0,5
17765636,4,100,5
17784364,4,100,5
17803072,4,100,5
17821796,4,25,5
17839476,0,16,5
17857148,9,196,5
17875872,0,100,5
17894608,25,25,5
17913312,64,4,5
17930996,16,9,5
17948676,0,25,5
17966364,9,9,5
17983012,9,64,5
18000680,4,196,5
18019404,1,25,5
18037072,9,0,5
18053708,0,16,5
18071400,1,9,5
18088044,9,9,5
18104684,4,0,5
18121328,0,1,5
18137960,1,16,5
18155636,1,0,5
18172284,4,144,5
18190996,16,144,5
18210756,25,256,5
18230520,9,324,5
18249248,16,49,5
18267944,25,100,5
18287720,0,64,5
18305404,0,1,5
18322040,9,0,5
18338680,0,1,5
18355312,1,100,5
18374036,4,121,5
18392756,49,1,5
18410432,25,1,5
18428120,1,9,5
18444752,16,0,5
18462424,0,9,5
18479068,16,4,5
18496764,0,16,5
18514432,1,36,5
18532104,36,121,5
18551876,81,16,5
18570604,25,16,5
18589316,0,1,5
18605960,1,36,5
18623640,1,16,5
18641328,36,9,5
18658988,0,16,5
18676664,36,0,5
18694356,0,9,5
18710988,1,1,5
18727628,0,9,5
18744272,1,16,5
18761968,1,1,5
18778596,4,0,5
18795228,1,4,5
18811872,1,0,5
18828528,4,16,5
18846188,0,0,5
18862828,0,16,5
18880504,0,9,5
18897156,1,0,5
18913788,4,0,5
18930424,1,0,5
18947064,0,25,5
18964760,0,49,5
18982444,1,4,5
18999080,9,1,5
19015728,1,49,5
19033412,1,9,5
19050036,1,16,5
19067708,4,9,5
19084360,9,1,5
19101000,16,1,5
19118668,0,9,5
19135312,1,4,5
19151964,1,16,5
19169632,9,49,5
19187320,25,81,5
19206036,36,289,5
19225800,16,289,5
19245552,16,16,5
19264272,16,1,5
19281952,1,4,5
19298596,0,16,5
19316272,1,16,5
19333956,1,1,5
19350608,4,1,5
19367248,9,196,5
19385956,1,361,5
19404680,49,0,5
19422364,16,81,5
19441080,1,25,5
19458744,4,16,5
19476420,25,25,5
19495164,0,0,5
19511800,4,4,5
19528436,1,16,5
19546108,4,36,5
19563812,1,16,5
19581484,4,64,5
19599156,25,0,5
19616836,16,49,5
19635552,4,121,5
19654272,4,81,5
19671956,0,9,5
19688596,1,36,5
19706288,4,25,5
19723956,0,16,5
19741628,16,1,5
19759316,36,36,5
19778040,1,49,5
19795708,0,16,5
19813396,4,4,5
19830044,4,0,5
19846676,0,9,5
19863312,36,1,5
19881012,16,9,5
19898692,1,9,5
19915312,9,1,5
19931952,36,4,5
19949640,9,0,5
19966276,1,1,5
19982908,0,0,5
19999552,0,0,5
20016200,25,4,5
20033888,16,9,5
20051556,9,0,5
20068184,9,16,6
20085872,0,121,6
20104596,9,0,6
20121236,49,16,6
20139948,16,49,6
20158672,0,49,6
20176356,9,9,6
20192988,25,4,6
20210660,36,0,6
20228352,16,0,6
20246044,25,4,6
20263700,49,729,6
20283468,81,2116,6
20304268,121,361,6
20325068,169,49,6
20344824,64,144,6
20364604,49,25,6
20383316,36,4,6
20400988,16,16,6
20419720,4,9,6
20436364,9,36,6
20454036,0,36,6
20471708,4,4,6
20488368,1,0,6
20505004,49,9,6
20522680,64,1,6
20540352,16,0,6
20558036,16,9,6
20575704,9,49,6
20593384,0,36,6
20611064,0,1,6
20627716,16,9,6
20645408,4,49,6
20663084,9,64,6
20680768,25,1,6
20698440,0,16,6
20716108,4,4,6
20732744,9,0,6
20749396,4,4,6
20766044,0,0,6
20782664,0,0,6
20799312,0,1,6
20815956,1,16,6
20833640,16,49,6
20852356,9,0,6
20868988,1,9,6
20885636,0,0,6
20902288,1,9,6
20918916,4,100,6
20937632,9,196,6
20956364,16,25,6
20975084,9,9,6
20991716,1,0,6
21008344,1,1,6
21024992,0,1,6
21041636,0,4,6
21058272,0,0,6
21074908,9,16,6
21092592,25,64,6
21111328,16,9,6
21129000,49,0,6
21146680,100,9,6
21165396,64,25,6
21184116,1,4,6
21200748,9,0,6
21217404,144,1,6
21236120,576,16,6
21255868,256,49,6
21275632,16,1,6
21293324,169,0,6
21312032,1369,4,6
21331792,3844,16,6
21352600,1156,121,6
21374436,64,25,6
21393156,121,1,6
21411876,1444,0,6
21431644,1521,25,6
21452436,841,49,6
21472196,4,9,6
21488844,256,4,6
21507556,4,36,6
21525236,169,1,6
21543948,0,196,6
21562676,49,121,6
21582428,64,4,6
21600108,961,49,6
21619884,100,100,6
21640676,9,4,6
21657320,121,1,6
21676040,4,4,6
21692680,256,64,6
21712432,625,144,6
21733236,25,1,6
21750924,576,1,6
21769636,576,0,6
21788356,36,4,6
21806024,1,1,6
21822680,49,0,6
21840360,49,0,6
21858032,9,1,6
21874664,0,1,6
21891316,4,1,6
21907960,16,1,6
21925640,36,16,6
21944364,1,25,6
21962036,9,16,6
21979716,64,9,6
21997388,324,9,6
22016124,64,49,6
22034840,81,4,6
22052516,0,64,6
22070180,484,1,6
22088924,81,0,6
22106592,196,121,6
22127396,16,25,6
22146120,441,16,6
22165872,1600,169,6
22187716,169,36,6
22207460,289,64,6
22227244,1225,36,6
22248036,324,4,6
22266752,400,4,6
22285476,9,1,6
22302108,3136,25,6
22322908,2304,100,6
22344756,49,64,6
22363492,4,25,6
22381160,289,1,6
22399872,324,1,6
22418600,36,1,6
22436268,1225,9,6
22456028,676,36,6
22475808,25,36,6
22494524,49,0,6
22512192,64,25,6
22530912,16,4,6
22548604,25,1,6
22566276,4,0,6
22582912,0,0,6
22599560,9,1,6
22616204,144,9,6
22634920,144,9,6
22653632,529,49,6
22673380,1,16,6
22691076,64,25,6
22709800,0,4,6
22726436,400,25,6
22746208,576,9,6
22764920,9,16,6
22782588,1,0,6
22799236,64,0,6
22816916,169,4,6
22835624,169,0,6
22854348,169,49,6
22874108,25,9,6
22891800,25,16,6
22910516,9,9,6
22927148,9,25,6
22944844,25,1,6
22962516,400,16,6
22982268,169,0,6
23000984,784,64,6
23020752,9,144,6
23039464,81,0,6
23057156,1,0,6
23073788,1,1,6
23090440,4,9,6
23107076,225,9,6
23125792,0,16,6
23143480,225,4,6
23162200,196,0,6
23180912,400,16,6
23200664,144,144,6
23221472,16,100,6
23241240,256,49,6
23260980,2209,16,6
23281800,2116,225,6
23303640,225,64,6
23323388,144,25,6
23343156,100,36,6
23362924,9,4,6
23379564,0,4,6
23396196,1,25,6
23413872,256,4,6
23432588,1369,100,6
23454428,1681,144,6
23476284,289,100,6
23497076,100,4,6
23515800,100,25,6
23535560,81,36,6
23554292,529,25,6
23574048,144,36,6
23593800,196,0,6
23612528,576,9,6
23631244,144,0,6
23649952,64,0,6
23667624,196,16,6
23687396,9,16,6
23705068,1,0,6
23721716,900,25,6
23741484,529,36,6
23761236,4,4,6
23777872,49,4,6
23795548,81,0,6
23813248,1,1,6
23829884,4,1,6
23846512,16,16,6
23865232,625,16,6
23884992,169,4,6
23903708,9,4,6
23920364,4,1,6
23936984,196,4,6
23955720,16,9,6
23973412,256,4,6
23992104,625,1,6
24010832,361,144,6
24031636,1764,9,6
24051392,196,144,6
24072176,196,64,6
24091960,64,9,6
24109628,144,100,6
24130420,400,25,6
24150200,64,16,6
24168908,5041,9,6
24188664,3969,400,6
24210516,49,81,6
24229236,1024,144,6
24251072,256,25,6
24270832,9,4,6
24287492,9,9,6
24304120,441,4,6
24322832,729,0,6
24341560,0,9,6
24358200,841,0,6
24376908,529,49,6
24396680,16,9,6
24414344,1936,81,6
24435144,6241,256,6
24456988,1156,144,6
24478852,16,1,6
24496524,36,4,6
24514192,1296,25,6
24534992,2025,25,6
24555804,625,49,6
24575552,4,0,6
24592196,64,9,6
24609880,0,4,6
24626520,324,4,6
24645232,256,64,6
24664992,25,25,6
24683712,529,9,6
24702432,900,16,6
24722196,49,4,6
24739872,144,49,6
24759636,0,1,6
24776264,1369,0,6
24796032,5041,256,6
24817884,1024,121,6
24839716,0,64,6
24857400,36,1,6
24875084,4,100,6
24893796,256,64,6
24913556,25,36,6
24932276,4,1,6
24948924,25,25,6
24967632,361,1,6
24986348,1089,1,6
25006120,1849,16,6
25026924,64,81,6
25045644,729,4,6
25064348,1369,49,6
25085156,2209,36,6
25105964,169,144,6
25126764,1156,0,6
25146520,961,196,6
25167328,1,4,6
25183960,81,16,6
25202660,25,9,6
25220352,196,16,6
25240108,100,1,6
25258836,196,36,6
25278592,784,9,6
25297316,144,36,6
25317064,25,0,6
25334760,16,4,6
25352440,9,1,6
25369068,400,9,6
25387796,16,1,6
25405488,841,1,6
25424204,49,9,6
25441876,25,1,6
25459556,49,0,6
25477240,9,0,6
25493876,625,0,6
25512596,100,49,6
25532352,225,9,6
25551084,441,9,6
25569788,1225,16,6
25590584,2704,81,6
25611400,2304,196,6
25633224,9,64,6
25650908,729,9,6
25669620,361,0,6
25688364,400,64,6
25708112,225,0,6
25726832,961,36,6
25746592,49,81,6
25765308,400,4,6
25784028,1444,64,6
25804848,100,361,6
25825640,36,0,6
25843304,576,64,6
25863068,49,0,6
25880752,841,9,6
25899464,9,0,6
25916128,169,4,6
25934836,0,9,6
25951484,36,0,6
25969152,144,36,6
25988928,324,9,6
26007648,144,9,6
26026356,25,9,6
26044032,121,16,6
26063792,0,36,6
26081480,729,16,6
26101224,2809,196,6
26123064,3844,196,6
26144916,1225,100,6
26166752,81,25,6
26185480,49,4,6
26203160,36,0,6
26220836,256,4,6
26239552,144,25,6
26259316,100,9,6
26278044,1,0,6
26294692,1,0,6
26311320,25,0,6
26328988,49,0,6
26346680,16,4,6
26364360,225,1,6
26383072,900,49,6
26402836,400,36,6
26422604,9,9,6
26439236,1,16,6
26456920,1,4,6
26473564,0,1,6
26490200,64,0,6
26507868,144,9,6
26526592,9,0,6
26543232,64,25,6
26561964,49,36,6
26580676,64,1,6
26598348,36,0,6
26616048,256,9,6
26634760,144,25,6
26654512,4,4,6
26671156,25,0,6
26688844,1,1,6
26705472,4,16,6
26723160,4,0,6
26739804,1,1,6
26756436,169,0,6
26775148,64,9,6
26792828,169,0,6
26811564,676,16,6
26831324,225,9,6
26850044,144,9,6
26868760,289,16,6
26888516,225,36,6
26908276,36,25,6
26926992,256,4,6
26945724,576,36,6
26965472,196,49,6
26985232,169,9,6
27003956,0,4,6
27020604,225,1,6
27039308,169,16,6
27059068,16,4,6
27076756,121,0,6
27095480,100,9,6
27114196,36,0,6
27131868,169,16,6
27151644,16,1,6
27169316,49,1,6
27186988,0,25,6
27204684,225,1,6
27223400,49,4,6
27241068,49,4,6
27258756,64,36,6
27277480,1089,0,6
27297224,961,16,6
27316992,1,16,6
27334680,576,1,6
27353396,169,9,6
27372116,1,1,6
27388760,49,0,6
27406444,64,0,6
27424112,64,0,6
27441800,576,36,6
27461552,361,64,6
27481308,1089,36,6
27502120,1296,100,6
27523964,36,25,6
27542680,324,36,6
27562448,81,1,6
27580124,441,49,6
27599876,784,0,6
27618604,400,16,6
27638352,100,64,6
27658116,25,4,6
27675796,324,0,6
27694508,576,64,6
27714272,49,16,6
27732988,36,36,6
27751724,16,4,6
27769400,49,9,6
27787076,81,25,6
27805800,16,0,6
27823488,25,9,6
27841156,9,0,6
27857800,144,0,6
27876524,64,16,6
27895232,841,36,6
27914992,81,0,6
27932664,121,4,6
27951400,784,16,6
27971156,0,0,6
27987792,441,64,6
28007564,49,0,6
28025240,196,25,6
28044996,441,9,6
28063704,25,9,6
28081404,1,9,6
28098040,16,0,6
28115716,441,9,6
28134444,196,4,6
28153156,81,0,6
28170844,4,1,6
28187476,144,1,6
28206196,841,4,6
28224920,2116,49,6
28245712,900,100,6
28266516,484,9,6
28285240,144,9,6
28303948,9,4,6
28320600,49,1,6
28338280,1,1,6
28354924,25,1,6
28372592,25,4,6
28390276,0,0,6
28406916,576,1,6
28425632,3249,25,6
28446424,1521,100,6
28468280,225,0,6
28486996,1764,81,6
28507796,529,100,6
28528592,9,49,6
28546280,25,16,6
28564992,1,0,6
28581628,256,25,6
28601396,25,9,6
28619080,400,16,6
28638820,3364,81,6
28659620,6724,400,6
28681472,289,361,6
28702256,1521,16,6
28723076,2601,64,6
28743888,529,1,6
28762584,576,81,6
28782348,1764,169,6
28804204,0,16,6
28821876,1369,64,6
28842676,841,0,6
28861388,0,9,6
28878028,576,0,6
28896756,1225,100,6
28918592,841,196,6
28939408,49,4,6
28957084,9,0,6
28973716,121,16,6
28993468,49,0,6
29011160,289,9,6
29029876,625,16,6
29049628,16,25,6
29068360,225,16,6
29088116,441,1,6
29106828,64,25,6
29125552,16,0,6
29143248,25,1,6
29160912,1,4,6
29177552,400,1,6
29196268,36,1,6
29213960,25,0,6
29231636,64,0,6
29249320,225,0,6
29268036,144,16,6
29287812,25,4,6
29305472,81,0,6
29323156,324,9,6
29341880,49,16,6
29360604,16,9,6
29378280,49,16,6
29397000,16,4,6
29414672,625,0,6
29433388,361,9,6
29452116,4,0,6
29468764,196,36,6
29488532,1,16,6
29506200,144,1,6
29524912,1,1,6
29541560,121,36,6
29561312,196,9,6
29580032,81,9,6
29597720,121,9,6
29616448,25,4,6
29634112,81,0,6
29651788,256,9,6
29670524,289,36,6
29690280,576,49,6
29710036,1,81,6
29727712,625,1,6
29746440,225,16,6
29766196,0,1,6
29782836,144,16,6
29802592,64,0,6
29820272,1156,36,6
29841072,289,49,6
29860820,25,16,6
29879544,81,9,6
29897236,1764,25,6
29918032,1296,169,6
29939868,1444,25,6
29960668,3721,81,6
29981472,2916,225,6
30003316,784,64,6
30023080,49,1,6
30040748,961,36,6
30060508,1600,121,1
30082364,4,9,1
30098992,324,16,1
30118760,225,1,1
30137484,0,25,1
30155160,81,64,1
30173876,225,25,1
30193628,529,1,1
30212356,1764,49,1
30233148,784,81,1
30252908,36,1,1
30270608,100,9,1
30289316,1936,81,1
30310112,2500,225,1
30331968,9,81,1
30349644,1444,9,1
30369396,1156,9,1
30389148,196,9,1
30407880,144,36,1
30427632,225,0,1
30446336,1369,9,1
30466116,2209,36,1
30486916,100,36,1
30506668,1156,49,1
30527464,484,64,1
30547236,625,25,1
30566988,1521,81,1
30587792,2025,64,1
30608604,576,25,1
30628356,9,9,1
30644984,361,4,1
30663712,1296,16,1
30684516,441,4,1
30703224,3364,49,1
30724032,324,100,1
30744840,49,0,1
30762524,49,4,1
30780184,1024,1,1
30799956,1156,225,1
30821800,0,25,1
30839476,121,16,1
30859228,324,25,1
30878992,576,0,1
30897708,1296,169,1
30919552,729,36,1
30939316,25,16,1
30958040,1,0,1
30974680,484,1,1
30993380,1936,0,1
31013148,361,16,1
31032924,900,1,1
31051636,9,36,1
31069324,2209,36,1
31090112,2304,144,1
31111956,784,16,1
31131720,361,1,1
31150432,2116,16,1
31171228,529,81,1
31190984,144,0,1
31209716,225,100,1
31230508,100,4,1
31249228,289,25,1
31268980,2401,64,1
31289780,10609,576,1
31312668,2116,441,1
31334524,25,9,1
31352208,16,36,1
31370916,81,9,1
31388584,361,81,1
31408352,1681,36,1
31429156,0,9,1
31445792,3025,9,1
31465564,784,121,1
31486368,4,4,1
31502988,361,4,1
31521716,1089,36,1
31542516,324,25,1
31562288,9,0,1
31578916,81,4,1
31596600,9,1,1
31613240,0,4,1
31629864,256,4,1
31648600,144,4,1
31667320,64,1,1
31685008,100,9,1
31703712,1,0,1
31720352,196,4,1
31739084,625,49,1
31758836,81,25,1
31777544,9,0,1
31794196,9,0,1
31810840,25,0,1
31828520,81,16,1
31847228,25,4,1
31864920,25,4,1
31882600,0,1,1
31899228,289,0,1
31917952,256,25,1
31937716,36,4,1
31955396,16,1,1
31973080,16,4,1
31990748,121,1,1
32009488,144,25,1
32029228,36,9,1
32046916,4,0,1
32063552,100,0,1
32082276,9,4,1
32098912,1,0,1
32115556,9,0,1
32132204,4,0,1
32148840,289,1,1
32167548,900,36,1
32187304,289,36,1
32207084,9,4,1
32223712,16,9,1
32241396,25,0,1
32259064,0,4,1
32275720,1,1,1
32292356,0,0,1
32308992,0,0,1
32325616,0,0,1
32342272,0,0,1
32358912,4,0,1
32375560,4,1,1
32392188,0,1,1
32408832,1,0,1
32425472,0,0,1
32442104,9,0,1
32458744,25,0,1
32476436,0,1,1
32493088,9,0,1
32509716,9,1,1
32526352,16,0,1
32544040,1,0,1
32560676,81,0,1
32578352,36,4,1
32596044,1,0,1
32612680,9,0,1
32629324,4,4,1
32645960,1,1,1
32662592,1,0,1
32679240,4,1,1
32695880,0,1,1
32712516,1,0,1
32729160,0,1,1
32745788,0,0,1
32762432,9,0,1
32779076,16,0,1
32796760,36,0,1
32814440,25,1,1
32832120,4,1,1
32848752,25,0,1
32866436,16,0,1
32884116,100,4,1
32902828,25,1,1
32920504,0,0,1
32937160,0,1,1
32953788,25,1,1
32971468,25,0,1
32989152,1,1,1
33005804,9,0,1
33022436,0,0,1
33039076,1,0,1
33055712,0,0,1
33072364,4,0,1
33088996,1,0,1
33105632,49,4,1
33123300,25,4,1
33141000,4,0,1
33157632,64,1,1
33175316,9,1,1
33191964,100,0,1
33210676,289,9,1
33229392,100,9,1
33248116,9,1,1
33264764,25,4,1
33282436,36,4,1
33300124,49,1,1
33317796,81,4,1
33335480,64,4,1
33353164,49,1,1
33370844,25,1,1
33388516,25,1,1
33406192,9,0,1
33422824,25,0,1
33440520,100,1,1
33459248,64,1,1
33476912,0,0,1
33493552,9,0,1
33510192,121,0,1
33528916,289,9,1
33547624,81,9,1
33565304,0,0,1
33581952,0,1,1
33598612,25,1,1
33616288,9,0,1
33632916,16,0,1
33650596,64,4,1
33668272,36,4,1
33685948,1,4,1
33702596,1,0,1
33719232,0,1,1
33735888,1,9,1
33752516,9,9,1
33769144,9,4,1
33785784,49,1,1
33803476,9,1,1
33820112,1,0,1
33836756,9,1,1
33853380,196,16,1
33873156,64,4,1
33890844,4,16,1
33908508,0,9,1
33925160,16,1,1
33942840,25,9,1
33960508,16,9,1
33978196,1,4,1
33994844,25,1,1
34012512,4,0,1
34029144,36,0,1
34046828,100,9,1
34065560,16,4,1
34083236,64,9,1
34100920,16,9,1
34118596,16,0,1
34136280,256,4,1
34154992,121,1,1
34173716,1,64,1
34191400,49,36,1
34210120,81,1,1
34227792,64,1,1
34245480,64,9,1
34263152,0,0,1
34279796,4,0,1
34296432,441,0,1
34315148,1764,36,1
34335952,196,81,1
34355724,144,9,1
34374444,9,25,1
34392124,100,25,1
34411876,16,0,1
34429548,121,25,1
34449308,4,16,1
34467000,64,16,1
34485712,784,49,1
34505464,484,49,1
34525236,9,0,1
34541884,0,1,1
34558512,169,49,1
34578272,25,49,1
34596996,64,4,1
34614684,196,0,1
34633396,25,4,1
34651076,1,1,1
34667728,169,1,1
34686436,324,16,1
34706192,100,36,1
34725956,49,0,1
34743632,9,0,1
34760268,49,0,1
34777952,9,1,1
34794596,121,0,1
34813328,9,1,1
34829952,4,0,1
34846588,0,1,1
34863240,100,1,1
34881956,361,4,1
34900668,196,25,1
34920432,4,0,1
34937084,0,0,1
34953712,9,4,1
34970356,1,0,1
34986992,100,4,1
35005716,361,4,1
35024432,100,16,1
35044196,4,4,1
35060840,25,1,1
35078516,169,4,1
35097232,196,9,1
35115948,25,1,1
35133636,0,1,1
35150276,0,0,1
35166908,16,0,1
35184588,9,0,1
35201240,9,1,1
35217884,1,0,1
35234516,16,0,1
35252196,36,1,1
35269876,9,0,1
35286508,4,1,1
35303152,1,0,1
35319792,1,1,1
35336436,1,0,1
35353080,16,1,1
35370760,4,1,1
35387400,36,1,1
35405084,144,9,1
35423784,64,9,1
35441464,9,0,1
35458116,9,1,1
35474756,49,1,1
35492432,36,4,1
35510108,81,9,1
35527800,64,4,1
35545484,25,4,1
35563152,49,1,1
35580836,49,4,1
35598520,16,4,1
35616200,1,0,1
35632824,49,0,1
35650500,25,4,1
35668196,9,1,1
35684840,16,1,1
35702516,25,1,1
35720200,121,4,1
35738920,49,9,1
35756596,0,0,1
35773232,16,0,1
35790916,225,9,1
35809636,256,16,1
35829392,121,4,1
35848104,9,4,1
35864760,0,1,1
35881392,1,0,1
35898032,9,0,1
35914664,1,0,1
35931324,1,0,1
35947952,0,1,1
35964592,9,0,1
35981228,1,1,1
35997876,16,1,1
36015560,16,1,1
36033224,0,0,1
36049860,16,0,1
36067564,49,0,1
36085228,121,1,1
36103956,196,4,1
36122668,36,4,1
36140356,1,0,1
36156988,0,0,1
36173628,0,0,1
36190276,4,0,1
36206928,36,0,1
36224596,1,1,1
36241232,1,0,1
36257876,0,0,1
36274516,25,0,1
36292196,25,1,1
36309868,0,0,1
36326516,4,1,1
36343152,25,0,1
36360832,49,0,1
36378508,25,1,1
36396196,0,0,1
36412848,36,1,1
36430520,4,0,1
36447152,36,1,1
36464832,49,1,1
36482512,1,0,1
36499156,9,0,1
36515784,9,0,1
36532436,0,0,1
36549080,0,0,1
36565716,9,0,1
36582344,16,1,1
36600036,36,1,1
36617716,1,0,1
36634348,4,1,1
36650984,16,0,1
36668688,64,0,1
36686352,49,4,1
36704028,25,4,1
36721712,4,4,1
36738356,4,0,1
36754996,16,0,1
36772676,36,0,1
36790360,16,0,1
36808036,4,0,1
36824680,9,1,1
36841320,9,0,1
36857960,49,0,1
36875640,49,1,1
36893320,25,9,1
36910992,49,1,1
36928680,49,1,1
36946352,1,1,1
36962988,4,0,1
36979628,9,0,1
36996284,9,1,1
37012912,4,1,1
37029560,4,0,1
37046184,0,1,1
37062840,1,1,1
37079476,1,0,1
37096112,0,0,1
37112756,4,0,1
37129396,4,0,1
37146032,25,4,1
37163716,49,1,1
37181380,64,4,1
37199076,16,4,1
37216752,16,1,1
37234436,100,4,1
37253148,100,9,1
37271888,49,4,1
37289556,9,1,1
37306192,1,0,1
37322836,1,0,1
37339484,1,0,1
37356112,64,4,1
37373800,169,9,1
37392520,36,9,1
37410200,25,0,1
37427876,169,0,1
37446588,196,4,1
37465324,121,9,1
37484028,36,4,1
37501716,4,0,1
37518360,1,1,1
37535000,0,0,1
37551644,9,0,1
37568280,1,1,1
37584916,0,0,1
37601556,4,0,1
37618208,1,0,1
37634836,64,0,1
37652516,64,0,1
37670196,36,0,1
37687864,25,0,1
37705548,16,1,1
37723232,4,0,1
37739884,1,0,1
37756516,0,0,1
37773148,0,0,1
37789800,16,0,1
37807476,49,0,1
37825160,0,0,1
37841796,36,4,1
37859476,0,1,1
37876120,25,0,1
37893784,9,0,1
37910428,4,0,1
37927080,9,0,1
37943720,25,1,1
37961388,16,0,1
37979072,1,0,1
37995720,1,1,1
38012352,36,1,1
38030036,25,1,1
38047704,1,1,1
38064360,9,1,1
38081000,1,1,1
38097632,1,0,1
38114260,9,0,1
38130916,0,0,1
38147556,1,0,1
38164196,1,1,1
38180828,0,1,1
38197488,4,1,1
38214116,36,0,1
38231792,36,1,1
38249468,4,0,1
38266116,0,0,1
38282756,1,0,1
38299396,9,1,1
38316040,4,1,1
38332672,0,0,1
38349316,9,0,1
38365952,16,0,1
38383644,4,0,1
38400272,9,1,1
38416928,25,0,1
38434596,4,0,1
38451244,1,0,1
38467884,1,0,1
38484520,0,1,1
38501156,4,0,1
38517796,1,4,1
38534436,0,0,1
38551076,4,0,1
38567708,0,0,1
38584352,16,0,1
38602032,0,0,1
38618676,0,1,1
38635316,49,0,1
38652996,4,1,1
38669644,25,0,1
38687316,16,4,1
38704992,4,0,1
38721636,4,0,1
38738272,9,0,1
38754908,0,0,1
38771548,4,0,1
38788196,4,0,1
38804852,0,1,1
38821472,4,0,1
38838120,1,0,1
38854760,81,0,1
38872440,25,1,1
38890116,1,0,1
38906752,16,1,1
38924432,36,0,1
38942116,36,1,1
38959792,49,4,1
38977472,64,0,1
38995152,16,0,1
39012832,16,0,1
39030516,36,0,1
39048200,64,4,1
39065884,16,1,1
39083556,16,1,1
39101232,64,4,1
39118924,36,1,1
39136612,49,1,1
39154268,25,4,1
39171952,4,1,1
39188596,0,1,1
39205236,1,0,1
39221868,9,0,1
39238520,1,0,1
39255160,0,1,1
39271792,1,0,1
39288436,9,0,1
39305080,16,1,1
39322764,0,1,1
39339396,36,0,1
39357080,49,4,1
39374752,0,4,1
39391408,4,0,1
39408048,4,1,1
39424672,25,1,1
39442352,49,1,1
39460048,9,1,1
39476672,16,0,1
39494360,144,1,1
39513072,49,4,1
39530764,9,4,1
39547388,16,1,1
39565080,9,1,1
39581716,16,1,1
39599396,16,1,1
39617068,0,1,1
39633716,4,0,1
39650364,1,1,1
39667008,49,1,1
39684672,36,1,1
39702356,1,0,1
39718996,0,1,1
39735636,9,1,1
39752272,4,0,1
39768916,4,0,1
39785552,9,1,1
39802196,1,0,1
39818836,4,0,1
39835468,16,1,1
39853156,25,0,1
39870844,4,0,1
39887480,9,1,1
39904120,25,1,1
39921800,1,1,1
39938436,1,0,1
39955076,4,0,1
39971716,0,0,1
39988364,1,0,1
40005008,36,1,1
40022676,49,4,1
40040352,4,4,1
40057000,1,1,7
40073636,1,0,7
40090268,1,0,7
40106908,0,0,7
40123560,4,0,7
40140204,1,0,7
40156828,16,0,7
40174508,9,0,7
40191160,9,0,7
40207792,49,0,7
40225472,81,4,7
40243140,25,0,7
40260836,4,0,7
40277468,16,0,7
40295144,9,4,7
40311788,4,1,7
40328436,0,0,7
40345068,9,0,7
40361708,1,0,7
40378348,9,0,7
40394992,36,0,7
40412676,9,0,7
40429312,1,1,7
40445940,4,0,7
40462596,9,1,7
40479236,4,0,7
40495872,1,0,7
40512496,0,0,7
40529152,0,0,7
40545788,16,1,7
40563476,100,1,7
40582196,49,1,7
40599884,1,0,7
40616504,1,0,7
40633148,16,0,7
40650840,0,0,7
40667488,49,1,7
40685148,25,1,7
40702832,0,0,7
40719484,1,4,7
40736124,1,0,7
40752748,1,0,7
40769384,1,0,7
40786036,4,1,7
40802680,9,0,7
40819308,1,0,7
40835956,36,1,7
40853636,36,4,7
40871324,9,1,7
40887944,4,1,7
40904592,9,1,7
40921236,100,1,7
40939948,49,9,7
40957640,1,0,7
40974260,16,0,7
40991956,0,0,7
41008588,9,0,7
41025240,9,1,7
41041864,1,0,7
41058516,9,0,7
41075156,9,0,7
41091796,4,0,7
41108424,0,1,7
41125076,0,0,7
41141708,0,0,7
41158360,0,0,7
41174984,0,1,7
41191636,16,0,7
41209308,16,0,7
41226996,9,1,7
41243628,1,0,7
41260276,9,1,7
41276920,4,1,7
41293560,0,1,7
41310192,0,1,7
41326848,0,1,7
41343464,0,1,7
41360108,4,0,7
41376744,4,1,7
41393404,9,0,7
41410024,16,0,7
41427712,16,1,7
41445392,4,0,7
41462040,4,0,7
41478680,1,0,7
41495308,9,0,7
41511956,25,9,7
41529652,4,4,7
41546284,16,0,7
41563948,9,0,7
41580596,0,0,7
41597236,0,0,7
41613880,0,0,7
41630524,0,0,7
41647156,0,0,7
41663796,0,0,7
41680424,0,0,7
41697064,0,0,7
41713728,1,0,7
41730356,0,0,7
41746988,0,0,7
41763632,0,1,7
41780280,0,1,7
41796920,0,0,7
41813560,0,0,7
41830196,100,4,7
41848920,529,25,7
41868688,169,25,7
41888440,1,0,7
41905064,0,0,7
41921716,4,0,7
41938348,16,1,7
41956036,1,0,7
41972672,1,1,7
41989320,0,1,7
42005948,0,1,7
42022584,0,0,7
42039220,1,0,7
42055876,0,0,7
42072516,0,0,7
42089156,1,0,7
42105780,0,0,7
42122436,0,0,7
42139076,1,0,7
42155720,0,0,7
42172340,0,0,7
42189000,1,0,7
42205628,0,0,7
42222276,0,0,7
42238908,0,0,7
42255568,0,0,7
42272196,0,0,7
42288836,0,1,7
42305460,0,1,7
42322112,0,0,7
42338744,0,0,7
42355388,0,0,7
42372020,0,0,7
42388672,1,0,7
42405308,0,0,7
42421948,0,1,7
42438580,0,0,7
42455244,0,1,7
42471876,0,0,7
42488508,0,0,7
42505152,1,0,7
42521804,1,0,7
42538432,0,0,7
42555076,1,0,7
42571700,4,0,7
42588356,4,0,7
42604996,4,0,7
42621640,1,0,7
42638268,0,0,7
42654916,0,1,7
42671560,0,0,7
42688184,0,0,7
42704820,1,0,7
42721476,0,0,7
42738108,0,0,7
42754752,0,0,7
42771392,1,0,7
42788036,0,0,7
42804668,0,0,7
42821308,0,0,7
42837952,1,0,7
42854596,0,0,7
42871228,0,0,7
42887872,0,0,7
42904504,0,0,7
42921156,0,0,7
42937784,0,0,7
42954436,1,0,7
42971068,0,0,7
42987716,1,0,7
43004356,1,0,7
43020988,0,0,7
43037632,0,0,7
43054288,0,0,7
43070912,1,0,7
43087552,0,1,7
43104188,1,0,7
43120832,0,0,7
43137464,0,0,7
43154116,1,0,7
43170740,0,0,7
43187392,0,0,7
43204028,0,0,7
43220668,0,1,7
43237312,0,0,7
43253968,0,0,7
43270596,0,0,7
43287228,0,1,7
43303864,1,0,7
43320512,1,0,7
43337144,0,0,7
43353788,1,0,7
43370420,0,0,7
43387072,0,0,7
43403704,1,0,7
43420344,0,0,7
43436980,1,0,7
43453640,0,1,7
43470268,0,0,7
43486908,0,0,7
43503540,0,0,7
43520196,4,0,7
43536840,1,1,7
43553476,0,0,7
43570104,0,4,7
43586760,0,1,7
43603388,0,0,7
43620036,1,0,7
43636660,0,0,7
43653316,0,4,7
43669952,0,0,7
43686596,1,0,7
43703220,0,0,7
43719876,0,0,7
43736516,1,0,7
43753160,1,0,7
43769792,1,0,7
43786436,0,0,7
43803068,0,1,7
43819704,0,0,7
43836340,1,0,7
43852996,0,0,7
43869632,0,0,7
43886264,0,0,7
43902904,0,1,7
43919552,0,0,7
43936184,1,0,7
43952840,0,1,7
43969468,0,0,7
43986116,0,1,7
44002760,0,0,7
44019396,0,0,7
44036028,0,0,7
44052680,0,1,7
44069308,1,0,7
44085956,1,1,7
44102580,0,0,7
44119232,0,0,7
44135868,0,1,7
44152516,0,0,7
44169148,1,0,7
44185796,0,1,7
44202424,0,0,7
44219064,0,0,7
44235712,1,0,7
44252360,0,0,7
44268992,0,0,7
44285628,0,0,7
44302260,0,0,7
44318912,0,0,7
44335548,0,0,7
44352192,1,1,7
44368824,0,0,7
44385476,0,0,7
44402108,0,0,7
44418748,0,0,7
44435392,0,0,7
44452036,0,0,7
44468668,0,0,7
44485308,0,0,7
44501944,0,0,7
44518596,0,0,7
44535236,0,1,7
44551884,0,0,7
44568504,0,0,7
44585156,0,0,7
44601788,0,1,7
44618440,0,1,7
44635068,0,0,7
44651716,0,0,7
44668348,0,0,7
44684988,0,1,7
44701620,0,0,7
44718272,0,0,7
44734904,0,0,7
44751548,0,0,7
44768180,0,0,7
44784836,0,0,7
44801464,0,0,7
44818108,0,1,7
44834740,0,0,7
44851396,0,0,7
44868028,0,0,7
44884668,0,0,7
44901304,0,1,7
44917956,0,0,7
44934588,1,0,7
44951228,4,0,7
44967864,16,0,7
44985572,4,1,7
45002188,0,4,7
45018828,1,0,7
45035460,0,0,7
45052120,0,1,7
45068756,0,0,7
45085388,0,0,7
45102024,0,0,7
45118676,0,0,7
45135316,1,0,7
45151960,0,1,7
45168584,0,0,7
45185244,0,0,7
45201868,0,0,7
45218516,1,0,7
45235140,0,0,7
45251800,0,1,7
45268432,0,0,7
45285076,0,0,7
45301712,0,0,7
45318356,0,0,7
45334996,0,0,7
45351636,0,0,7
45368260,0,0,7
45384916,1,0,7
45401544,0,0,7
45418184,0,0,7
45434820,0,0,7
45451476,0,0,7
45468112,0,0,7
45484756,1,0,7
45501384,0,1,7
45518036,0,0,7
45534664,0,0,7
45551316,1,0,7
45567952,1,0,7
45584596,1,0,7
45601228,0,1,7
45617876,0,0,7
45634500,0,0,7
45651168,0,0,7
45667800,0,0,7
45684428,1,0,7
45701060,0,0,7
45717716,0,0,7
45734356,1,0,7
45750984,1,0,7
45767620,0,0,7
45784276,1,0,7
45800908,1,0,7
45817560,0,0,7
45834192,0,0,7
45850844,0,0,7
45867464,0,0,7
45884108,0,0,7
45900740,0,0,7
45917392,0,0,7
45934028,0,0,7
45950676,1,0,7
45967304,0,0,7
45983956,0,0,7
46000588,0,0,7
46017228,0,0,7
46033872,0,0,7
46050516,0,0,7
46067156,1,0,7
46083788,0,0,7
46100420,0,0,7
46117076,0,0,7
46133716,0,0,7
46150360,0,0,7
46166980,0,0,7
46183636,0,0,7
46200268,0,0,7
46216908,1,0,7
46233556,1,0,7
46250204,0,0,7
46266840,0,0,7
46283476,0,0,7
46300100,0,0,7
46316756,0,0,7
46333388,0,0,7
46350028,0,0,7
46366664,0,0,7
46383312,0,0,7
46399944,1,0,7
46416588,1,0,7
46433232,0,0,7
46449888,0,0,7
46466504,0,0,7
46483148,1,0,7
46499788,1,0,7
46516448,0,1,7
46533080,0,0,7
46549716,0,1,7
46566340,0,0,7
46582992,0,0,7
46599628,0,0,7
46616268,0,0,7
46632908,1,0,7
46649560,1,0,7
46666188,0,0,7
46682828,0,0,7
46699468,1,0,7
46716112,1,0,7
46732756,0,0,7
46749388,0,0,7
46766020,0,0,7
46782676,0,0,7
46799304,0,0,7
46815948,0,0,7
46832584,1,0,7
46849236,0,1,7
46865864,0,0,7
46882516,1,0,7
46899136,0,0,7
46915792,4,0,7
46932436,9,0,7
46949076,0,0,7
46965704,1,0,7
46982356,0,0,7
46998988,0,0,7
47015628,1,0,7
47032264,0,1,7
47048916,0,0,7
47065548,0,0,7
47082184,0,0,7
47098820,0,0,7
47115472,0,0,7
47132108,0,0,7
47148760,1,1,7
47165392,0,0,7
47182044,0,0,7
47198680,1,0,7
47215304,0,0,7
47231940,4,0,7
47248596,0,0,7
47265240,1,1,7
47281876,1,0,7
47298508,1,0,7
47315156,0,0,7
47331792,1,0,7
47348428,0,1,7
47365060,0,0,7
47381716,1,0,7
47398348,0,0,7
47414996,1,0,7
47431632,0,0,7
47448276,0,0,7
47464904,0,0,7
47481548,0,1,7
47498184,0,0,7
47514844,1,0,7
47531468,4,0,7
47548108,0,1,7
47564740,0,0,7
47581396,0,0,7
47598024,0,0,7
47614668,0,0,7
47631300,0,0,7
47647952,0,0,7
47664588,0,1,7
47681224,0,0,7
47697860,1,0,7
47714512,0,0,7
47731156,1,0,7
47747796,0,0,7
47764432,0,0,7
47781076,0,0,7
47797708,1,1,7
47814356,1,0,7
47830988,0,0,7
47847636,0,0,7
47864268,0,0,7
47880908,0,0,7
47897544,0,0,7
47914188,0,0,7
47930840,0,0,7
47947476,0,0,7
47964100,1,1,7
47980756,0,0,7
47997388,0,0,7
48014028,0,0,7
48030660,0,0,7
48047312,0,0,7
48063948,0,0,7
48080592,1,0,7
48097232,0,0,7
48113876,0,0,7
48130520,0,0,7
48147160,0,0,7
48163784,0,1,7
48180436,0,0,7
48197068,1,0,7
48213704,1,0,7
48230352,4,1,7
48247008,1,0,7
48263628,0,0,7
48280264,1,0,7
48296904,1,0,7
48313568,0,0,7
48330196,1,0,7
48346828,4,0,7
48363460,0,0,7
48380120,0,1,7
48396760,1,0,7
48413396,0,0,7
48430032,1,0,7
48446676,0,0,7
48463316,1,0,7
48479952,1,1,7
48496584,0,1,7
48513244,0,0,7
48529868,0,0,7
48546504,1,0,7
48563144,0,1,7
48579792,0,0,7
48596436,0,0,7
48613076,0,0,7
48629700,0,0,7
48646356,4,0,7
48662988,4,0,7
48679628,0,1,7
48696264,0,1,7
48712924,0,0,7
48729556,0,0,7
48746196,1,0,7
48762820,4,0,7
48779476,0,0,7
48796116,0,0,7
48812760,1,0,7
48829392,0,0,7
48846048,0,0,7
48862676,0,0,7
48879316,0,0,7
48895944,0,1,7
48912600,0,0,7
48929236,1,0,7
48945868,1,0,7
48962500,1,0,7
48979152,1,0,7
48995788,0,0,7
49012424,0,0,7
49029060,0,1,7
49045716,0,0,7
49062348,0,0,7
49078988,0,0,7
49095620,0,0,7
49112276,0,0,7
49128920,0,0,7
49145556,0,0,7
49162180,0,0,7
49178832,0,0,7
49195464,0,0,7
49212108,1,0,7
49228744,0,1,7
49245384,0,0,7
49262024,0,0,7
49278668,0,4,7
49295312,1,1,7
49311956,1,0,7
49328600,0,1,7
49345228,0,1,7
49361860,0,0,7
49378512,1,0,7
49395148,0,0,7
49411792,0,0,7
49428428,1,0,7
49445076,0,1,7
49461708,0,0,7
49478356,1,0,7
49494980,0,0,7
49511640,0,1,7
49528268,0,0,7
49544908,1,0,7
49561548,1,0,7
49578196,1,0,7
49594828,0,0,7
49611468,0,0,7
49628104,0,0,7
49644756,1,0,7
49661388,0,0,7
49678028,0,0,7
49694672,0,0,7
49711324,0,0,7
49727948,0,0,7
49744588,0,0,7
49761220,0,0,7
49777880,1,0,7
49794508,0,0,7
49811160,1,1,7
49827784,0,1,7
49844436,0,0,7
49861068,0,0,7
49877720,1,0,7
49894352,0,0,7
49911000,0,0,7
49927636,0,0,7
49944264,0,0,7
49960900,1,0,7
49977560,0,1,7
49994188,0,0,7
50010836,0,0,7
50027472,0,0,7
50044128,0,1,7
50060756,0,0,2
50077396,1,0,2
50094036,1,0,2
50110688,0,0,2
50127320,1,1,2
50143948,0,0,2
50160580,1,0,2
50177232,0,0,2
50193868,1,0,2
50210520,0,0,2
50227152,0,0,2
50243796,0,1,2
50260428,0,0,2
50277068,0,0,2
50293708,1,0,2
50310368,0,1,2
50326984,0,0,2
50343628,1,0,2
50360268,1,0,2
50376916,4,0,2
50393548,0,0,2
50410188,1,0,2
50426824,0,0,2
50443476,0,0,2
50460116,4,0,2
50476756,0,0,2
50493380,0,0,2
50510036,0,0,2
50526676,0,0,2
50543320,0,0,2
50559936,0,0,2
50576596,1,0,2
50593236,0,0,2
50609868,0,0,2
50626508,4,0,2
50643168,4,0,2
50659796,0,0,2
50676428,0,0,2
50693060,0,0,2
50709716,0,0,2
50726356,0,0,2
50742984,0,0,2
50759624,4,0,2
50776276,4,1,2
50792912,0,1,2
50809556,0,0,2
50826176,1,0,2
50842836,1,0,2
50859480,1,0,2
50876120,0,0,2
50892740,0,0,2
50909392,4,0,2
50926036,1,0,2
50942676,0,0,2
50959300,0,0,2
50975956,0,0,2
50992588,0,0,2
51009228,0,0,2
51025860,0,0,2
51042516,4,0,2
51059160,1,0,2
51075788,0,1,2
51092420,0,1,2
51109076,0,0,2
51125708,1,0,2
51142348,0,0,2
51158980,0,0,2
51175632,0,0,2
51192272,0,1,2
51208920,0,0,2
51225540,0,0,2
51242200,1,0,2
51258824,0,0,2
51275472,0,0,2
51292108,0,0,2
51308756,1,0,2
51325388,0,0,2
51342028,0,0,2
51358664,0,0,2
51375316,0,0,2
51391948,0,0,2
51408600,0,0,2
51425224,0,1,2
51441880,1,0,2
51458516,1,0,2
51475148,0,0,2
51491780,0,0,2
51508436,1,0,2
51525076,0,1,2
51541720,0,0,2
51558352,0,0,2
51575004,1,0,2
51591624,0,0,2
51608264,0,0,2
51624900,0,0,2
51641556,1,0,2
51658192,1,0,2
51674828,0,0,2
51691464,0,0,2
51708120,0,0,2
51724760,0,0,2
51741388,1,0,2
51758032,9,0,2
51774676,9,0,2
51791316,4,0,2
51807952,0,1,2
51824592,1,0,2
51841236,0,0,2
51857864,1,0,2
51874512,4,1,2
51891144,0,0,2
51907808,1,1,2
51924436,0,0,2
51941076,1,1,2
51957708,0,16,2
51975408,1,1,2
51992028,0,0,2
52008680,0,0,2
52025312,0,0,2
52041956,0,0,2
52058592,0,1,2
52075240,0,1,2
52091872,0,1,2
52108516,1,4,2
52125148,1,0,2
52141796,1,0,2
52158424,4,0,2
52175076,9,0,2
52191716,1,0,2
52208348,0,0,2
52224980,0,0,2
52241636,1,0,2
52258268,4,0,2
52274908,4,0,2
52291540,4,0,2
52308196,1,0,2
52324824,4,0,2
52341468,4,0,2
52358100,1,0,2
52374760,0,1,2
52391388,0,0,2
52408028,0,0,2
52424668,1,0,2
52441320,9,1,2
52457948,1,1,2
52474592,0,1,2
52491232,0,0,2
52507884,0,0,2
52524508,0,0,2
52541160,0,0,2
52557792,0,0,2
52574444,0,0,2
52591080,0,0,2
52607716,0,0,2
52624340,0,0,2
52640996,0,0,2
52657628,0,0,2
52674268,0,0,2
52690912,1,0,2
52707556,1,0,2
52724200,0,0,2
52740828,0,0,2
52757460,0,0,2
52774112,1,0,2
52790744,1,0,2
52807400,1,1,2
52824024,1,1,2
52840676,0,0,2
52857308,0,1,2
52873956,1,0,2
52890588,1,0,2
52907236,1,0,2
52923880,1,0,2
52940508,0,0,2
52957144,0,1,2
52973796,0,0,2
52990428,0,0,2
53007080,1,1,2
53023704,1,1,2
53040356,0,1,2
53056988,0,0,2
53073624,1,0,2
53090260,1,0,2
53106916,1,0,2
53123548,0,0,2
53140192,0,0,2
53156820,0,0,2
53173472,0,0,2
53190120,0,1,2
53206748,0,0,2
53223380,4,0,2
53240044,1,0,2
53256676,0,0,2
53273304,0,0,2
53289940,0,0,2
53306596,0,0,2
53323228,0,0,2
53339868,0,1,2
53356512,0,0,2
53373152,0,0,2
53389788,0,0,2
53406424,0,0,2
53423060,0,1,2
53439716,0,0,2
53456348,0,0,2
53472988,0,0,2
53489632,0,0,2
53506276,1,0,2
53522908,0,0,2
53539544,0,0,2
53556176,0,0,2
53572836,0,0,2
53589464,1,0,2
53606108,0,0,2
53622744,0,1,2
53639396,0,0,2
53656036,0,0,2
53672668,0,0,2
53689300,0,0,2
53705956,4,0,2
53722596,1,0,2
53739236,1,0,2
53755872,4,0,2
53772528,0,1,2
53789160,0,0,2
53805796,1,0,2
53822432,1,0,2
53839076,0,0,2
53855716,1,1,2
53872344,0,0,2
53888980,1,0,2
53905636,0,0,2
53922268,0,0,2
53938904,1,0,2
53955544,1,0,2
53972196,0,0,2
53988836,1,0,2
54005468,1,0,2
54022104,1,0,2
54038752,0,1,2
54055384,0,0,2
54072028,1,0,2
54088660,0,0,2
54105316,1,0,2
54121956,0,0,2
54138584,0,0,2
54155216,0,0,2
54171876,0,0,2
54188520,0,0,2
54205148,1,0,2
54221780,0,0,2
54238436,0,0,2
54255080,1,0,2
54271708,0,0,2
54288352,0,0,2
54304996,1,0,2
54321628,0,0,2
54338268,0,0,2
54354908,1,0,2
54371556,0,0,2
54388188,1,1,2
54404836,0,0,2
54421464,0,0,2
54438112,0,0,2
54454744,0,0,2
54471388,0,0,2
54488032,0,0,2
54504676,0,0,2
54521308,0,0,2
54537948,1,0,2
54554592,1,1,2
54571236,0,0,2
54587876,0,0,2
54604512,0,1,2
54621156,1,1,2
54637796,1,0,2
54654428,0,0,2
54671076,1,1,2
54687708,0,0,2
54704356,0,1,2
54720988,0,0,2
54737628,0,0,2
54754260,0,0,2
54770912,0,0,2
54787552,4,1,2
54804196,4,0,2
54820828,1,0,2
54837476,1,0,2
54854108,0,0,2
54870752,0,0,2
54887384,0,0,2
54904036,0,0,2
54920672,0,0,2
54937320,1,0,2
54953948,0,0,2
54970608,1,0,2
54987236,0,0,2
55003868,0,1,2
55020516,0,1,2
55037152,0,0,2
55053788,0,0,2
55070424,0,0,2
55087060,0,0,2
55103716,1,0,2
55120348,1,0,2
55137000,1,0,2
55153632,0,0,2
55170272,1,0,2
55186912,0,1,2
55203548,0,1,2
55220192,0,0,2
55236836,0,0,2
55253472,1,0,2
55270116,4,0,2
55286748,1,0,2
55303400,0,0,2
55320036,0,0,2
55336672,0,1,2
55353304,0,0,2
55369956,0,0,2
55386584,0,0,2
55403240,0,0,2
55419864,0,0,2
55436516,0,0,2
55453152,0,0,2
55469796,0,0,2
55486424,0,0,2
55503072,0,0,2
55519708,1,1,2
55536348,1,0,2
55552980,0,0,2
55569648,1,1,2
55586276,0,0,2
55602904,0,0,2
55619544,0,0,2
55636196,0,0,2
55652828,0,0,2
55669468,1,0,2
55686112,1,0,2
55702756,1,0,2
55719388,0,0,2
55736028,0,0,2
55752660,0,0,2
55769316,0,0,2
55785948,0,0,2
55802588,0,0,2
55819216,0,0,2
55835876,4,0,2
55852516,4,0,2
55869148,1,0,2
55885792,0,0,2
55902436,0,0,2
55919060,0,0,2
55935708,1,0,2
55952340,0,0,2
55968996,1,0,2
55985640,4,1,2
56002276,0,0,2
56018900,0,0,2
56035556,0,1,2
56052184,0,0,2
56068832,1,0,2
56085460,0,1,2
56102104,0,0,2
56118748,4,0,2
56135392,4,1,2
56152020,0,0,2
56168672,4,0,2
56185320,0,0,2
56201960,1,0,2
56218592,1,0,2
56235232,1,0,2
56251864,0,0,2
56268516,1,0,2
56285152,0,0,2
56301800,0,1,2
56318424,0,0,2
56335064,0,0,2
56351704,0,0,2
56368364,1,1,2
56384996,1,0,2
56401628,0,0,2
56418256,1,0,2
56434912,0,0,2
56451548,0,0,2
56468188,0,0,2
56484824,0,0,2
56501476,0,0,2
56518108,0,0,2
56534756,1,0,2
56551388,1,0,2
56568040,16,1,2
56585720,1,4,2
56602360,1,1,2
56618988,9,0,2
56635636,9,0,2
56652280,1,0,2
56668920,0,0,2
56685552,1,0,2
56702196,0,1,2
56718828,0,0,2
56735468,9,1,2
56752104,1,1,2
56768760,0,0,2
56785388,1,0,2
56802032,0,0,2
56818668,4,0,2
56835316,1,0,2
56851948,0,0,2
56868600,1,0,2
56885228,0,0,2
56901872,0,0,2
56918508,0,0,2
56935148,1,0,2
56951788,1,0,2
56968444,1,0,2
56985068,4,0,2
57001708,0,0,2
57018340,0,0,2
57034996,1,0,2
57051628,1,0,2
57068284,0,1,2
57084912,0,0,2
57101556,0,0,2
57118188,0,0,2
57134824,0,0,2
57151460,0,0,2
57168116,0,0,2
57184752,0,0,2
57201388,0,0,2
57218020,1,0,2
57234676,0,0,2
57251308,0,1,2
57267956,0,1,2
57284580,0,0,2
57301236,0,0,2
57317868,0,0,2
57334508,1,0,2
57351144,16,0,2
57368844,16,0,2
57386524,4,0,2
57403144,0,0,2
57419804,1,0,2
57436436,0,1,2
57453084,1,0,2
57469716,1,0,2
57486356,0,0,2
57502996,0,0,2
57519636,0,0,2
57536268,4,0,2
57552916,1,1,2
57569556,1,0,2
57586208,4,0,2
57602836,1,0,2
57619484,0,0,2
57636116,1,0,2
57652764,1,0,2
57669392,0,0,2
57686044,0,0,2
57702672,0,0,2
57719316,0,1,2
57735948,0,0,2
57752608,1,0,2
57769244,0,0,2
57785888,0,0,2
57802508,0,0,2
57819164,1,0,2
57835796,1,0,2
57852448,1,0,2
57869068,0,0,2
57885716,0,0,2
57902356,0,0,2
57919000,4,1,2
57935636,1,1,2
57952280,0,0,2
57968924,1,1,2
57985568,1,0,2
58002192,1,0,2
58018836,1,0,2
58035484,0,0,2
58052120,0,1,2
58068760,1,1,2
58085400,4,0,2
58102036,36,1,2
58119728,49,4,2
58137388,9,4,2
58154036,1,1,2
58170680,0,1,2
58187320,1,0,2
58203960,1,1,2
58220596,4,0,2
58237240,4,0,2
58253868,0,0,2
58270508,4,0,2
58287160,16,0,2
58304836,0,0,2
58321476,1,1,2
58338108,0,0,2
58354756,0,1,2
58371408,0,0,2
58388036,4,1,2
58404668,16,4,2
58422368,1,4,2
58439008,0,1,2
58455624,0,0,2
58472264,0,0,2
58488920,4,0,2
58505556,4,4,2
58522200,9,4,2
58538836,1,0,2
58555476,0,1,2
58572112,0,0,2
58588748,1,0,2
58605392,0,1,2
58622036,0,0,2
58638668,0,0,2
58655304,0,0,2
58671948,0,0,2
58688604,1,0,2
58705244,4,0,2
58721872,1,0,2
58738504,0,0,2
58755160,4,1,2
58771796,25,1,2
58789480,16,4,2
58807160,0,1,2
58823808,1,0,2
58840440,1,0,2
58857076,1,0,2
58873716,0,0,2
58890360,1,0,2
58907000,4,0,2
58923628,25,0,2
58941312,9,1,2
58957956,4,0,2
58974596,1,0,2
58991240,0,0,2
59007880,0,0,2
59024524,1,0,2
59041156,0,0,2
59057788,0,0,2
59074428,0,1,2
59091076,0,0,2
59107712,4,0,2
59124348,4,0,2
59140988,1,0,2
59157636,1,0,2
59174272,4,0,2
59190908,1,0,2
59207560,1,0,2
59224204,0,0,2
59240836,0,0,2
59257480,0,1,2
59274108,1,0,2
59290756,1,0,2
59307400,4,1,2
59324040,1,4,2
59340672,0,0,2
59357316,1,0,2
59373960,1,0,2
59390588,1,0,2
59407228,9,0,2
59423880,1,0,2
59440508,0,0,2
59457148,16,0,2
59474840,49,1,2
59492516,25,1,2
59510188,9,0,2
59526840,0,1,2
59543472,0,0,2
59560112,0,0,2
59576756,1,0,2
59593384,1,0,2
59610032,16,0,2
59627712,9,0,2
59644348,9,0,2
59660988,4,0,2
59677620,0,0,2
59694280,9,1,2
59710920,9,1,2
59727560,1,0,2
59744192,0,0,2
59760840,9,0,2
59777468,16,0,2
59795144,25,0,2
59812824,16,0,2
59830512,4,0,2
59847144,0,0,2
59863796,1,0,2
59880420,0,0,2
59897076,0,1,2
59913704,0,0,2
59930344,4,0,2
59946984,9,0,2
59963636,0,0,2
59980264,16,0,2
59997952,9,0,2
60014584,9,0,2
60031240,4,1,2
60047872,0,1,2
60064512,1,0,5
60081144,4,0,5
60097796,1,0,5
60114432,0,0,5
60131076,1,0,5
60147700,0,0,5
60164356,16,0,5
60182048,1,0,5
60198668,4,0,5
60215316,16,0,5
60232992,0,0,5
60249640,81,4,5
60267312,36,4,5
60285004,1,0,5
60301640,0,0,5
60318276,4,0,5
60334908,9,1,5
60351556,4,0,5
60368200,1,1,5
60384832,0,0,5
60401468,0,0,5
60418116,0,0,5
60434756,0,0,5
60451392,1,0,5
60468032,0,1,5
60484676,0,0,5
60501316,0,0,5
60517952,0,0,5
60534588,0,0,5
60551244,4,0,5
60567876,0,0,5
60584508,0,0,5
60601152,0,1,5
60617800,1,1,5
60634436,9,0,5
60651064,4,0,5
60667712,1,0,5
60684356,0,1,5
60700996,1,0,5
60717628,4,0,5
60734276,1,0,5
60750916,0,0,5
60767552,9,0,5
60784188,16,0,5
60801876,1,0,5
60818524,0,0,5
60835156,0,0,5
60851784,0,0,5
60868428,0,1,5
60885076,0,0,5
60901724,0,0,5
60918356,0,0,5
60934996,4,0,5
60951636,25,1,5
60969316,25,1,5
60986996,1,0,5
61003632,0,0,5
61020276,4,1,5
61036920,25,0,5
61054592,36,1,5
61072272,9,1,5
61088916,4,0,5
61105568,4,1,5
61122188,0,0,5
61138828,1,0,5
61155480,1,0,5
61172116,0,0,5
61188744,0,0,5
61205388,4,0,5
61222040,16,1,5
61239716,16,0,5
61257396,9,0,5
61274028,1,0,5
61290676,1,0,5
61307312,0,0,5
61323960,9,1,5
61340580,16,1,5
61358280,25,0,5
61375952,16,1,5
61393628,9,1,5
61410264,4,0,5
61426916,0,0,5
61443556,0,0,5
61460200,0,0,5
61476832,0,0,5
61493488,0,0,5
61510116,1,0,5
61526752,9,1,5
61543392,4,4,5
61560036,1,1,5
61576668,0,0,5
61593312,0,1,5
61609948,1,1,5
61626604,1,0,5
61643240,0,0,5
61659872,0,0,5
61676512,1,0,5
61693160,1,1,5
61709788,1,0,5
61726428,1,0,5
61743060,0,1,5
61759716,0,1,5
61776348,0,0,5
61792988,1,0,5
61809620,0,0,5
61826276,1,0,5
61842916,4,1,5
61859552,9,1,5
61876188,1,0,5
61892836,0,0,5
61909464,0,0,5
61926116,1,0,5
61942752,1,0,5
61959408,9,0,5
61976040,16,1,5
61993708,4,1,5
62010352,16,0,5
62028044,144,1,5
62046764,49,16,5
62065476,0,0,5
62082112,9,1,5
62098756,16,1,5
62116428,9,1,5
62133072,9,0,5
62149716,0,1,5
62166360,49,9,5
62184040,169,1,5
62202748,81,1,5
62220436,9,0,5
62237080,25,0,5
62254744,196,64,5
62274508,81,121,5
62294284,1,36,5
62311964,16,9,5
62329628,49,9,5
62347316,81,1,5
62365000,4,0,5
62381636,9,4,5
62398276,9,0,5
62414924,0,9,5
62431556,9,49,5
62449236,9,16,5
62466904,36,36,5
62485648,81,289,5
62505404,25,121,5
62525156,4,36,5
62542824,25,1,5
62560528,9,324,5
62579244,1,441,5
62597960,1,64,5
62615640,36,0,5
62633320,81,121,5
62653060,81,2209,5
62673860,121,3025,5
62695716,144,289,5
62716516,64,0,5
62734204,4,36,5
62751876,9,64,5
62769556,4,121,5
62788272,36,121,5
62808016,9,2304,5
62827792,16,1296,5
62848604,36,361,5
62868352,0,225,5
62887076,4,49,5
62904744,25,25,5
62923476,0,289,5
62942188,64,225,5
62961956,81,121,5
62981704,0,441,5
63000444,144,1,5
63019160,4,361,5
63037876,196,225,5
63058676,169,25,5
63078444,81,16,5
63097152,36,289,5
63116904,0,144,5
63135636,1,16,5
63153328,144,0,5
63172028,64,0,5
63189704,25,400,5
63209468,25,324,5
63229248,4,4,5
63245868,4,0,5
63262520,9,0,5
63279168,16,81,5
63297880,9,49,5
63315548,16,81,5
63334280,4,100,5
63352992,0,16,5
63370672,16,16,5
63389396,49,36,5
63408108,4,121,5
63426844,0,81,5
63444528,25,169,5
63464276,36,100,5
63484036,0,49,5
63501724,9,64,5
63519396,0,9,5
63536036,16,4,5
63553720,36,1,5
63571388,0,25,5
63589080,1,16,5
63606744,0,16,5
63624436,1,25,5
63642112,4,1,5
63658756,9,0,5
63675388,9,4,5
63692044,9,9,5
63708672,16,9,5
63726356,4,0,5
63743000,0,1,5
63759640,0,9,5
63776284,9,1,5
63792920,16,4,5
63810600,36,16,5
63829324,64,9,5
63847000,16,81,5
63865704,0,49,5
63883400,4,1,5
63900040,16,0,5
63917704,0,225,5
63936436,1,529,5
63955156,1,400,5
63973880,81,225,5
63993636,169,16,5
64013408,16,25,5
64032124,9,16,5
64049788,1,1,5
64066428,0,4,5
64083080,1,25,5
64100760,25,0,5
64118436,16,0,5
64136112,1,121,5
64154836,0,361,5
64173560,4,484,5
64192280,25,196,5
64212040,25,1,5
64229716,1,121,5
64248428,4,169,5
64267148,25,1,5
64284836,36,49,5
64303548,36,4,5
64321236,49,256,5
64341004,36,0,5
64358672,16,784,5
64378436,121,576,5
64399228,169,4,5
64417952,9,256,5
64436680,49,225,5
64456440,16,225,5
64476200,16,361,5
64495964,49,16,5
64514676,4,25,5
64532356,4,49,5
64550036,1,64,5
64567716,0,0,5
64584352,1,81,5
64602024,4,361,5
64620764,9,676,5
64639476,4,49,5
64657160,16,25,5
64675884,4,9,5
64692524,0,1,5
64709164,0,196,5
64727872,49,64,5
64746600,81,16,5
64765320,0,36,5
64782996,1,9,5
64799632,25,4,5
64817308,0,16,5
64834984,0,100,5
64853720,9,289,5
64872416,0,100,5
64891156,16,9,5
64908844,4,9,5
64925476,25,25,5
64944196,81,16,5
64962916,49,9,5
64980600,0,1,5
64997236,16,0,5
65014920,0,49,5
65032604,25,16,5
65051320,4,49,5
65068992,0,64,5
65086688,1,49,5
65104348,0,121,5
65123068,0,0,5
65139716,4,100,5
65158444,9,64,5
65176120,9,25,5
65193796,0,1,5
65210440,0,25,5
65228120,0,0,5
65244756,4,4,5
65261396,4,25,5
65279072,0,0,5
65295708,4,0,5
65312344,0,16,5
65330032,1,9,5
65346676,4,0,5
65363324,1,25,5
65381000,1,1,5
65397632,0,36,5
65415312,1,64,5
65433004,4,169,5
65451716,4,25,5
65469396,9,0,5
65486036,0,1,5
65502668,16,9,5
65520352,16,0,5
65538028,1,1,5
65554672,0,4,5
65571304,0,4,5
65587948,0,1,5
65604588,0,4,5
65621244,9,1,5
65637876,81,4,5
65655548,81,0,5
65673244,1,9,5
65689884,0,36,5
65707568,4,81,5
65725236,4,49,5
65742924,0,81,5
65760596,25,121,5
65780360,9,1,5
65797004,4,144,5
65815716,16,4,5
65833392,4,0,5
65850040,0,0,5
65866660,0,36,5
65884364,1,0,5
65900996,1,25,5
65918676,1,16,5
65936352,4,144,5
65955084,1,81,5
65972760,0,36,5
65990424,0,64,5
66008116,36,1,5
66025796,9,4,5
66042436,0,4,5
66059068,0,16,5
66076756,0,16,5
66094436,1,1,5
66111080,9,9,5
66127716,16,25,5
66146436,4,16,5
66164120,0,49,5
66181796,4,16,5
66199460,4,36,5
66217164,1,25,5
66234824,9,9,5
66251476,16,25,5
66270188,4,9,5
66286836,0,0,5
66303480,1,9,5
66320108,36,0,5
66337796,9,9,5
66354432,0,4,5
66371076,4,64,5
66388756,9,25,5
66406432,16,1,5
66424128,1,36,5
66441796,9,16,5
66459476,16,1,5
66477156,9,0,5
66493800,1,1,5
66510428,25,0,5
66528112,16,1,5
66545804,4,1,5
66562444,36,9,5
66580120,4,0,5
66596752,16,0,5
66614440,9,16,5
66632116,0,25,5
66649796,0,9,5
66666420,0,36,5
66684124,1,25,5
66701788,4,16,5
66719484,4,4,5
66736116,9,4,5
66752760,4,9,5
66769396,0,0,5
66786036,1,4,5
66802668,1,0,5
66819316,0,25,5
66836996,1,36,5
66854676,4,9,5
66871312,0,4,5
66887952,0,1,5
66904604,0,4,5
66921236,0,9,5
66937876,4,9,5
66954528,1,9,5
66971156,0,4,5
66987792,0,4,5
67004440,0,1,5
67021080,0,1,5
67037716,16,1,5
67055392,16,4,5
67073088,1,1,5
67089720,1,9,5
67106356,1,0,5
67123000,1,25,5
67140684,1,9,5
67157316,0,0,5
67173948,0,0,5
67190588,0,1,5
67207240,4,0,5
67223884,4,0,5
67240520,0,16,5
67258200,1,36,5
67275884,9,25,5
67293556,0,64,5
67311236,0,81,5
67328916,9,4,5
67345556,9,0,5
67362192,0,0,5
67378828,0,9,5
67395480,1,9,5
67412116,0,16,5
67429796,0,16,5
67447468,0,4,5
67464108,1,1,5
67480756,0,4,5
67497392,0,0,5
67514036,1,16,5
67531708,1,144,5
67550436,16,100,5
67570212,16,4,5
67587872,1,9,5
67604524,0,1,5
67621172,0,4,5
67637800,0,4,5
67654432,0,9,5
67671088,1,64,5
67688756,16,25,5
67707480,49,9,5
67725160,9,16,5
67742836,9,16,5
67760524,4,0,5
67777172,1,9,5
67793800,1,4,5
67810456,1,1,5
67827092,36,1,5
67844748,49,16,5
67863468,4,36,5
67881152,4,81,5
67898836,1,144,5
67917548,36,100,5
67937316,36,36,5
67956044,1,0,5
67972672,0,1,5
67989308,0,4,5
68005956,4,9,5
68022592,1,0,5
68039236,0,1,5
68055876,1,0,5
68072524,0,0,5
68089156,0,0,5
68105796,1,1,5
68122428,0,1,5
68139080,1,16,5
68156756,4,0,5
68173396,1,25,5
68191068,1,36,5
68208768,1,16,5
68226440,1,9,5
68243068,4,0,5
68259704,0,9,5
68276364,0,81,5
68294044,0,4,5
68310680,0,9,5
68327308,0,16,5
68344996,0,64,5
68362672,4,256,5
68381384,36,289,5
68401160,49,169,5
68420924,1,64,5
68438600,0,16,5
68456272,0,9,5
68472916,4,4,5
68489560,0,16,5
68507232,9,36,5
68524912,1,324,5
68543632,9,169,5
68562352,9,121,5
68581072,16,36,5
68599776,4,0,5
68616444,0,16,5
68634112,4,100,5
68652836,0,169,5
68671556,0,49,5
68689236,0,49,5
68706908,4,169,5
68725640,4,25,5
68743324,4,1,5
68759964,4,0,5
68776588,1,4,5
68793232,0,4,5
68809888,1,9,5
68826524,0,9,5
68843152,4,4,5
68859800,4,1,5
68876436,0,1,5
68893084,9,49,5
68910760,1,49,5
68928432,9,1,5
68945084,0,196,5
68963796,9,225,5
68982516,25,100,5
69002284,36,9,5
69019964,9,1,5
69036592,0,0,5
69053244,0,9,5
69069892,4,1,5
69086516,0,9,5
69103156,0,25,5
69120836,4,144,5
69139568,1,25,5
69157248,1,1,5
69173876,4,25,5
69191564,4,16,5
69209252,1,1,5
69225888,1,4,5
69242512,0,4,5
69259156,4,0,5
69275800,0,9,5
69292436,0,4,5
69309080,0,1,5
69325712,1,0,5
69342360,0,9,5
69358996,0,0,5
69375640,1,1,5
69392284,9,4,5
69408932,4,25,5
69426608,4,25,5
69444272,9,9,5
69460904,4,9,5
69477560,0,16,5
69495228,0,0,5
69511880,1,36,5
69529548,1,16,5
69547236,1,9,5
69563868,1,4,5
69580508,0,1,5
69597140,0,0,5
69613800,1,1,5
69630440,1,1,5
69647072,0,4,5
69663704,0,0,5
69680364,9,16,5
69698036,0,81,5
69715716,16,16,5
69734456,4,1,5
69751088,1,1,5
69767724,1,25,5
69785388,4,25,5
69803084,0,25,5
69820764,1,49,5
69838436,9,4,5
69855080,9,64,5
69872768,0,9,5
69889392,0,81,5
69907076,9,16,5
69924744,4,16,5
69942444,0,0,5
69959076,0,25,5
69976752,0,0,5
69993392,4,196,5
70012124,100,196,5
70032928,121,4,5
70051628,0,49,5
70069320,25,1,1
70086992,1,256,1
70105712,16,361,1
70125472,64,100,1
70145252,49,16,1
70163948,16,25,1
70182676,49,100,1
70202444,25,16,1
70221168,1,4,1
70237788,4,1,1
70254432,36,16,1
70273160,36,49,1
70291876,25,121,1
70311640,9,100,1
70330348,0,36,1
70348048,4,25,1
70365716,25,64,1
70384440,4,9,1
70401084,9,49,1
70418760,9,256,1
70437476,16,441,1
70457224,9,144,1
70475952,4,16,1
70493632,1,25,1
70511312,1,1,1
70527948,0,25,1
70545644,0,0,1
70562276,4,16,1
70579948,4,1,1
70596592,1,9,1
70613244,1,9,1
70629876,0,9,1
70646520,1,196,1
70665240,4,121,1
70683968,49,49,1
70702672,16,81,1
70721400,9,16,1
70739072,9,0,1
70755716,4,1,1
70772356,1,9,1
70788992,0,9,1
70805648,9,4,1
70822284,4,1,1
70838916,0,1,1
70855548,0,4,1
70872196,0,36,1
70889876,1,25,1
70907544,1,16,1
70925224,0,9,1
70941880,0,1,1
70958508,0,16,1
70976196,1,36,1
70993872,1,1,1
71010516,0,36,1
71028196,0,4,1
71044836,4,16,1
71062508,1,9,1
71079156,1,0,1
71095796,9,25,1
71113476,0,81,1
71131164,4,4,1
71147800,1,16,1
71165480,1,4,1
71182116,1,144,1
71200836,0,169,1
71219564,0,121,1
71238280,25,16,1
71256992,25,4,1
71274672,0,0,1
71291312,1,0,1
71307956,16,0,1
71325632,36,0,1
71343328,4,1,1
71359948,0,0,1
71376588,0,4,1
71393228,0,0,1
71409884,1,16,1
71427548,0,16,1
71445236,9,4,1
71461868,4,9,1
71478524,0,4,1
71495164,4,1,1
71511796,4,0,1
71528420,0,1,1
71545080,0,1,1
71561708,0,0,1
71578352,0,0,1
71594992,0,144,1
71613724,0,324,1
71632436,9,25,1
71650120,4,4,1
71666760,0,1,1
71683396,1,1,1
71700028,0,0,1
71716672,9,4,1
71733324,4,64,1
71751004,0,225,1
71769712,1,25,1
71787392,1,0,1
71804036,4,4,1
71820676,0,0,1
71837312,1,4,1
71853956,16,4,1
71871636,4,36,1
71889324,1,9,1
71905960,4,4,1
71922588,0,16,1
71940276,4,25,1
71957956,0,16,1
71975644,1,121,1
71994352,25,100,1
72014120,16,25,1
72032832,0,196,1
72051556,64,49,1
72070280,144,1,1
72088996,49,0,1
72106664,0,4,1
72123308,9,25,1
72140996,64,9,1
72158668,121,0,1
72177396,81,0,1
72195064,36,36,1
72213804,0,196,1
72232512,169,49,1
72252276,196,1,1
72271000,16,4,1
72288676,0,4,1
72305320,36,25,1
72324020,144,64,1
72343796,36,9,1
72361472,121,0,1
72380188,625,25,1
72399960,324,100,1
72420764,25,16,1
72439468,0,0,1
72456100,1,0,1
72472760,0,1,1
72489388,16,9,1
72507084,4,1,1
72523708,100,1,1
72542436,16,1,1
72560116,9,0,1
72576752,25,4,1
72594428,64,0,1
72612124,484,25,1
72631876,289,49,1
72651636,16,16,1
72670364,81,1,1
72688048,25,4,1
72705716,324,1,1
72724432,121,4,1
72743152,25,16,1
72761876,9,0,1
72778512,36,0,1
72796208,100,4,1
72814928,36,4,1
72832600,36,1,1
72850280,1,1,1
72866920,16,1,1
72884596,36,0,1
72902276,169,16,1
72922028,25,4,1
72939716,9,0,1
72956364,1,4,1
72973000,1,1,1
72989628,25,4,1
73007324,1,9,1
73023952,16,9,1
73041632,121,1,1
73060360,169,1,1
73079084,64,16,1
73097804,25,9,1
73115472,121,9,1
73134204,100,16,1
73153960,144,4,1
73172676,0,9,1
73189312,64,1,1
73207004,0,4,1
73223636,49,0,1
73241312,144,1,1
73260028,225,4,1
73278752,25,4,1
73296436,4,1,1
73313080,1,4,1
73329728,16,4,1
73347404,100,9,1
73366124,49,1,1
73383792,0,1,1
73400440,0,0,1
73417080,0,1,1
73433716,0,0,1
73450352,0,0,1
73466996,64,1,1
73484680,81,1,1
73502352,16,1,1
73520032,1,1,1
73536680,81,4,1
73554360,16,0,1
73572028,1,4,1
73588664,25,0,1
73606368,16,1,1
73624036,0,4,1
73640676,16,1,1
73658348,9,0,1
73674996,0,1,1
73691632,64,1,1
73709316,225,9,1
73728036,289,49,1
73747804,121,16,1
73767548,25,4,1
73785236,9,0,1
73801876,9,1,1
73818524,16,1,1
73836196,169,9,1
73854908,36,9,1
73872600,100,1,1
73891308,256,25,1
73911068,25,25,1
73929804,36,0,1
73947480,100,4,1
73966192,81,4,1
73983880,1,1,1
74000516,256,1,1
74019236,225,36,1
74039008,1,16,1
74056660,121,1,1
74075396,64,9,1
74093088,1,0,1
74109708,4,25,1
74127392,4,16,1
74145076,49,9,1
74162748,144,25,1
74182508,144,16,1
74202280,121,16,1
74222040,4,9,1
74238668,16,0,1
74256348,25,1,1
74274044,1,0,1
74290668,4,0,1
74307316,36,1,1
74324984,9,1,1
74341644,4,0,1
74358280,4,0,1
74374916,4,0,1
74391540,0,0,1
74408196,16,1,1
74425888,25,1,1
74443556,4,4,1
74460196,36,4,1
74477876,9,0,1
74494516,1,0,1
74511148,4,0,1
74527796,4,0,1
74544440,16,1,1
74562108,9,4,1
74578756,9,0,1
74595404,1,0,1
74612048,1,1,1
74628676,16,0,1
74646360,9,1,1
74663004,4,0,1
74679652,1,1,1
74696276,0,0,1
74712916,0,1,1
74729556,0,0,1
74746196,1,1,1
74762828,0,0,1
74779480,36,4,1
74797164,25,1,1
74814836,0,0,1
74831480,9,0,1
74848108,1,0,1
74864768,1,0,1
74881400,0,1,1
74898036,16,0,1
74915716,9,0,1
74932356,1,1,1
74948996,0,1,1
74965624,4,0,1
74982276,1,0,1
74998928,0,4,1
75015556,0,4,1
75032192,1,0,1
75048828,1,0,1
75065480,9,1,1
75082116,36,1,1
75099796,1,0,1
75116440,4,1,1
75133076,16,0,1
75150760,16,0,1
75168436,1,1,1
75185072,1,1,1
75201716,0,0,1
75218356,0,0,1
75234996,4,0,1
75251632,1,0,1
75268284,1,0,1
75284912,1,0,1
75301560,1,0,1
75318192,4,0,1
75334836,0,0,1
75351476,4,0,1
75368120,25,1,1
75385784,16,1,1
75403476,25,0,1
75421148,16,0,1
75438824,0,0,1
75455464,16,1,1
75473152,9,0,1
75489788,0,1,1
75506428,1,0,1
75523064,0,1,1
75539716,1,0,1
75556348,9,0,1
75572988,9,1,1
75589640,1,1,1
75606280,25,0,1
75623956,16,1,1
75641640,9,0,1
75658280,100,0,1
75677000,36,1,1
75694668,9,1,1
75711316,1,0,1
75727956,0,1,1
75744592,0,0,1
75761240,1,1,1
75777876,1,0,1
75794516,0,1,1
75811156,0,0,1
75827788,9,1,1
75844436,9,0,1
75861076,4,1,1
75877716,0,0,1
75894348,1,0,1
75910988,0,0,1
75927636,1,4,1
75944276,1,1,1
75960904,0,0,1
75977548,0,0,1
75994196,0,1,1
76010836,1,0,1
76027468,4,0,1
76044116,1,0,1
76060764,1,0,1
76077396,0,0,1
76094040,1,1,1
76110668,0,0,1
76127316,0,0,1
76143956,0,0,1
76160592,0,1,1
76177232,1,0,1
76193872,1,0,1
76210516,9,0,1
76227144,9,0,1
76243788,1,0,1
76260436,1,0,1
76277076,4,0,1
76293704,0,0,1
76310352,0,1,1
76326992,0,0,1
76343644,1,0,1
76360276,0,0,1
76376912,4,0,1
76393556,1,0,1
76410192,0,0,1
76426828,0,4,1
76443472,0,1,1
76460124,0,0,1
76476768,0,4,1
76493392,1,0,1
76510040,4,9,1
76526676,9,4,1
76543312,16,0,1
76560996,4,0,1
76577640,0,1,1
76594276,0,0,1
76610916,0,1,1
76627544,1,0,1
76644188,1,0,1
76660836,0,0,1
76677488,1,1,1
76694108,0,0,1
76710756,1,4,1
76727396,9,1,1
76744036,9,0,1
76760680,0,1,1
76777320,0,1,1
76793968,1,1,1
76810596,4,0,1
76827228,1,0,1
76843864,1,0,1
76860520,0,1,1
76877156,4,0,1
76893800,9,4,1
76910436,0,1,1
76927076,0,1,1
76943716,4,1,1
76960348,4,0,1
76976988,9,0,1
76993640,4,1,1
77010272,4,0,1
77026908,0,0,1
77043560,1,0,1
77060204,0,0,1
77076836,0,0,1
77093472,0,0,1
77110120,0,0,1
77126756,0,0,1
77143396,4,0,1
77160028,1,0,1
77176680,0,1,1
77193316,0,0,1
77209960,1,1,1
77226584,0,0,1
77243228,1,0,1
77259876,9,1,1
77276516,9,0,1
77293156,1,0,1
77309788,0,0,1
77326436,0,0,1
77343080,0,1,1
77359712,0,0,1
77376356,0,0,1
77392992,1,0,1
77409632,0,0,1
77426268,0,1,1
77442908,0,1,1
77459564,1,0,1
77476196,9,0,1
77492828,1,0,1
77509468,1,0,1
77526112,4,0,1
77542756,16,1,1
77560436,9,0,1
77577076,0,0,1
77593720,0,0,1
77610364,1,0,1
77626988,1,0,1
77643640,0,0,1
77660284,0,0,1
77676916,0,0,1
77693556,1,0,1
77710188,0,0,1
77726832,0,0,1
77743476,1,0,1
77760112,0,1,1
77776760,0,0,1
77793396,1,0,1
77810048,4,0,1
77826676,1,0,1
77843312,1,0,1
77859956,0,0,1
77876600,0,1,1
77893232,0,1,1
77909876,4,1,1
77926516,9,0,1
77943156,4,4,1
77959796,0,4,1
77976428,9,0,1
77993076,9,1,1
78009716,1,0,1
78026348,0,0,1
78042988,0,0,1
78059640,4,4,1
78076280,0,1,1
78092908,0,0,1
78109544,0,0,1
78126196,9,0,1
78142840,16,1,1
78160516,4,1,1
78177152,0,1,1
78193796,0,0,1
78210436,1,0,1
78227068,0,0,1
78243716,1,0,1
78260364,0,0,1
78277008,1,0,1
78293636,1,0,1
78310276,0,0,1
78326916,1,0,1
78343564,4,0,1
78360196,0,0,1
78376828,0,0,1
78393476,4,0,1
78410116,1,0,1
78426752,4,0,1
78443392,36,0,1
78461076,25,0,1
78478756,0,0,1
78495400,16,0,1
78513056,4,0,1
78529720,9,1,1
78546352,25,1,1
78564040,9,4,1
78580668,0,0,1
78597316,1,1,1
78613948,4,1,1
78630596,9,0,1
78647220,9,0,1
78663876,4,0,1
78680512,1,0,1
78697156,4,0,1
78713792,4,0,1
78730440,1,0,1
78747068,0,0,1
78763708,0,0,1
78780356,0,1,1
78797004,1,0,1
78813628,0,0,1
78830268,0,0,1
78846900,0,0,1
78863552,1,0,1
78880196,1,0,1
78896840,0,0,1
78913468,0,0,1
78930112,0,0,1
78946748,1,0,1
78963400,1,0,1
78980032,0,0,1
78996692,0,1,1
79013316,1,0,1
79029956,1,0,1
79046588,4,1,1
79063244,9,1,1
79079876,1,0,1
79096516,1,0,1
79113144,4,0,1
79129796,25,0,1
79147464,9,0,1
79164116,4,0,1
79180752,9,0,1
79197404,4,0,1
79214036,9,0,1
79230672,4,1,1
79247312,1,0,1
79263956,1,0,1
79280588,0,0,1
79297232,0,0,1
79313856,0,0,1
79330512,0,0,1
79347148,0,1,1
79363796,0,0,1
79380436,0,1,1
79397088,0,0,1
79413708,1,1,1
79430356,9,0,1
79446992,4,0,1
79463636,0,0,1
79480268,0,0,1
79496908,0,0,1
79513544,1,0,1
79530196,0,0,1
79546828,0,0,1
79563468,0,0,1
79580112,0,0,1
79596760,0,1,1
79613388,0,0,1
79630028,0,0,1
79646660,1,0,1
79663316,1,0,1
79679968,1,0,1
79696596,0,0,1
79713220,0,0,1
79729876,0,0,1
79746504,0,0,1
79763156,0,0,1
79779788,0,0,1
79796436,4,1,1
79813076,1,0,1
79829720,1,1,1
79846344,1,0,1
79862996,0,0,1
79879632,0,0,1
79896276,0,0,1
79912908,0,0,1
79929556,0,0,1
79946188,0,1,1
79962828,0,0,1
79979472,0,1,1
79996112,0,0,1
80012744,0,0,1
80029384,0,0,1
80046016,0,0,1
80062676,0,0,7
80079324,0,1,7
80095956,0,0,7
80112584,0,1,7
80129240,0,0,7
80145868,1,0,7
80162508,1,1,7
80179152,4,0,7
80195796,1,0,7
80212428,0,0,7
80229068,0,1,7
80245700,0,0,7
80262356,0,0,7
80278996,0,0,7
80295632,0,1,7
80312264,0,1,7
80328916,0,0,7
80345548,0,0,7
80362196,0,0,7
80378836,0,0,7
80395476,0,0,7
80412108,0,0,7
80428748,0,1,7
80445380,0,0,7
80462036,0,0,7
80478668,0,0,7
80495316,0,0,7
80511944,0,1,7
80528596,0,0,7
80545228,0,0,7
80561868,0,0,7
80578512,0,0,7
80595160,0,1,7
80611784,0,0,7
80628432,0,1,7
80645064,0,0,7
80661728,0,0,7
80678360,0,0,7
80694996,0,0,7
80711620,0,0,7
80728272,0,0,7
80744908,4,0,7
80761556,1,0,7
80778196,1,0,7
80794840,0,0,7
80811468,1,0,7
80828120,1,0,7
80844740,1,0,7
80861396,0,1,7
80878036,0,0,7
80894676,0,0,7
80911304,0,1,7
80927956,0,0,7
80944588,0,0,7
80961228,0,0,7
80977872,0,1,7
80994516,0,0,7
81011148,1,0,7
81027796,1,4,7
81044424,0,1,7
81061076,0,1,7
81077716,1,4,7
81094360,1,1,7
81110992,1,0,7
81127632,1,0,7
81144276,1,0,7
81160916,0,0,7
81177552,1,1,7
81194196,1,0,7
81210824,0,0,7
81227468,0,1,7
81244104,0,0,7
81260756,0,0,7
81277396,0,0,7
81294024,4,0,7
81310660,1,0,7
81327312,0,0,7
81343944,0,0,7
81360600,1,4,7
81377232,0,0,7
81393876,1,0,7
81410520,1,0,7
81427144,0,0,7
81443788,1,0,7
81460440,0,0,7
81477076,1,0,7
81493716,1,0,7
81510340,0,0,7
81526996,0,0,7
81543624,0,0,7
81560272,0,1,7
81576912,0,0,7
81593556,0,0,7
81610196,1,0,7
81626836,1,9,7
81643468,9,9,7
81660124,1,0,7
81676760,0,1,7
81693384,0,0,7
81710020,0,0,7
81726672,1,0,7
81743308,1,0,7
81759960,1,1,7
81776588,1,0,7
81793236,0,0,7
81809868,0,0,7
81826508,0,1,7
81843140,4,0,7
81859796,4,0,7
81876440,1,1,7
81893068,1,0,7
81909700,0,1,7
81926352,0,0,7
81943000,1,0,7
81959640,0,0,7
81976260,0,0,7
81992924,1,0,7
82009548,1,1,7
82026184,1,0,7
82042816,1,0,7
82059476,1,0,7
82076120,0,1,7
82092756,0,1,7
82109388,0,0,7
82126048,0,1,7
82142672,0,1,7
82159320,0,0,7
82175940,0,0,7
82192596,0,1,7
82209224,0,0,7
82225880,1,0,7
82242508,0,0,7
82259160,0,1,7
82275796,0,0,7
82292424,1,0,7
82309060,0,0,7
82325716,0,1,7
82342348,0,0,7
82358992,4,0,7
82375628,4,1,7
82392284,4,0,7
82408908,1,1,7
82425548,0,0,7
82442192,0,0,7
82458848,0,1,7
82475472,0,0,7
82492104,0,0,7
82508744,0,1,7
82525396,0,0,7
82542040,0,0,7
82558680,0,0,7
82575312,0,0,7
82591956,0,0,7
82608588,0,0,7
82625224,0,0,7
82641868,0,0,7
82658520,0,0,7
82675148,0,1,7
82691792,0,1,7
82708424,0,0,7
82725076,0,0,7
82741716,0,0,7
82758360,1,0,7
82774988,0,0,7
82791632,0,0,7
82808268,0,1,7
82824908,0,0,7
82841548,0,1,7
82858208,0,0,7
82874836,0,0,7
82891468,0,0,7
82908100,0,0,7
82924760,0,1,7
82941388,0,0,7
82958040,1,0,7
82974660,1,0,7
82991312,0,0,7
83007948,0,0,7
83024596,0,0,7
83041236,0,0,7
83057888,0,1,7
83074516,0,0,7
83091144,0,0,7
83107784,0,1,7
83124436,0,0,7
83141072,0,0,7
83157720,1,0,7
83174344,0,0,7
83190996,0,0,7
83207624,0,0,7
83224276,1,0,7
83240908,0,0,7
83257568,0,0,7
83274184,0,0,7
83290824,0,0,7
83307460,0,0,7
83324112,0,0,7
83340748,0,0,7
83357392,0,0,7
83374024,0,0,7
83390676,0,0,7
83407308,0,0,7
83423956,1,0,7
83440584,0,0,7
83457240,0,1,7
83473864,0,0,7
83490504,0,0,7
83507140,0,1,7
83523796,0,0,7
83540440,0,0,7
83557076,0,0,7
83573700,0,0,7
83590348,0,0,7
83606988,0,0,7
83623628,0,0,7
83640272,0,0,7
83656928,0,1,7
83673548,0,0,7
83690188,0,0,7
83706820,0,0,7
83723472,0,0,7
83740112,0,1,7
83756764,0,0,7
83773380,0,0,7
83790032,0,0,7
83806668,0,0,7
83823316,0,0,7
83839956,0,1,7
83856596,0,0,7
83873224,0,0,7
83889868,0,0,7
83906504,0,0,7
83923156,0,0,7
83939796,0,0,7
83956436,0,0,7
83973060,0,0,7
83989716,0,0,7
84006344,0,0,7
84022996,1,0,7
84039632,0,0,7
84056272,0,0,7
84072904,0,0,7
84089548,0,0,7
84106180,0,0,7
84122832,0,0,7
84139476,0,0,7
84156112,0,0,7
84172740,0,0,7
84189392,0,0,7
84206024,0,0,7
84222668,0,0,7
84239312,0,1,7
84255960,0,0,7
84272588,0,0,7
84289232,0,1,7
84305860,0,0,7
84322516,0,0,7
84339156,0,0,7
84355804,0,1,7
84372420,0,0,7
84389076,0,0,7
84405704,0,0,7
84422356,0,0,7
84438996,0,0,7
84455648,0,1,7
84472268,0,0,7
84488908,0,1,7
84505540,0,0,7
84522208,0,0,7
84538836,0,0,7
84555468,0,0,7
84572100,0,0,7
84588756,0,0,7
84605388,0,0,7
84622028,0,1,7
84638672,0,0,7
84655316,0,0,7
84671948,0,0,7
84688588,0,1,7
84705228,0,0,7
84721880,0,0,7
84738520,0,1,7
84755160,0,1,7
84771784,0,1,7
84788436,0,0,7
84805068,0,0,7
84821720,0,0,7
84838348,0,0,7
84854996,0,4,7
84871628,0,1,7
84888264,0,0,7
84904904,0,1,7
84921556,0,0,7
84938200,0,1,7
84954836,0,0,7
84971464,0,1,7
84988116,0,0,7
85004748,0,0,7
85021384,0,0,7
85038028,0,1,7
85054680,0,0,7
85071304,0,0,7
85087948,0,1,7
85104580,0,0,7
85121236,0,0,7
85137880,0,1,7
85154504,0,0,7
85171140,0,0,7
85187796,0,0,7
85204428,0,0,7
85221072,0,0,7
85237712,0,0,7
85254352,0,0,7
85270984,1,0,7
85287628,0,0,7
85304264,0,1,7
85320924,0,1,7
85337560,0,0,7
85354188,0,0,7
85370824,0,0,7
85387476,0,0,7
85404120,0,0,7
85420760,0,0,7
85437396,0,1,7
85454044,0,0,7
85470668,0,0,7
85487308,0,0,7
85503940,0,0,7
85520596,0,0,7
85537236,1,0,7
85553876,0,0,7
85570500,0,0,7
85587156,0,1,7
85603788,0,0,7
85620428,0,0,7
85637072,0,1,7
85653716,0,0,7
85670344,0,0,7
85686984,0,0,7
85703620,0,0,7
85720276,0,0,7
85736924,0,1,7
85753548,0,0,7
85770180,0,0,7
85786836,0,1,7
85803468,0,0,7
85820120,0,0,7
85836752,0,0,7
85853396,0,0,7
85870028,0,1,7
85886664,0,0,7
85903296,0,0,7
85919956,0,0,7
85936604,0,1,7
85953224,0,0,7
85969852,0,0,7
85986516,0,1,7
86003148,0,0,7
86019800,0,0,7
86036432,0,0,7
86053072,0,0,7
86069708,0,1,7
86086344,0,0,7
86102980,0,0,7
86119644,0,0,7
86136276,0,1,7
86152904,0,0,7
86169540,0,0,7
86186200,0,1,7
86202824,0,0,7
86219480,0,1,7
86236112,0,0,7
86252756,0,0,7
86269388,0,0,7
86286028,0,1,7
86302660,0,0,7
86319316,0,0,7
86335960,0,1,7
86352596,0,0,7
86369220,0,0,7
86385876,0,0,7
86402504,0,0,7
86419156,0,0,7
86435792,0,1,7
86452436,0,0,7
86469068,0,0,7
86485704,0,0,7
86502352,1,0,7
86519008,0,0,7
86535636,0,0,7
86552268,0,0,7
86568900,0,0,7
86585552,0,0,7
86602188,0,0,7
86618840,0,1,7
86635472,0,0,7
86652112,0,0,7
86668748,0,0,7
86685388,0,0,7
86702032,1,0,7
86718688,0,0,7
86735308,0,0,7
86751948,0,0,7
86768580,0,0,7
86785236,0,1,7
86801880,0,1,7
86818520,0,0,7
86835140,0,0,7
86851796,0,0,7
86868428,0,0,7
86885064,0,0,7
86901700,0,0,7
86918368,0,0,7
86934984,0,0,7
86951624,0,0,7
86968260,1,0,7
86984912,0,0,7
87001548,0,0,7
87018200,0,0,7
87034832,0,0,7
87051480,0,1,7
87068104,0,0,7
87084748,0,0,7
87101380,0,0,7
87118040,0,0,7
87134676,0,0,7
87151308,0,0,7
87167944,0,1,7
87184596,0,0,7
87201228,0,0,7
87217880,0,0,7
87234512,1,1,7
87251156,0,1,7
87267788,0,0,7
87284424,0,0,7
87301060,0,0,7
87317724,0,0,7
87334348,0,0,7
87350984,0,0,7
87367620,0,0,7
87384276,0,1,7
87400916,0,0,7
87417560,0,1,7
87434184,0,0,7
87450836,0,0,7
87467468,0,0,7
87484104,0,0,7
87500740,0,0,7
87517400,0,1,7
87534040,0,0,7
87550664,0,0,7
87567300,0,0,7
87583952,0,0,7
87600588,0,0,7
87617236,0,0,7
87633868,0,0,7
87650512,0,0,7
87667148,0,0,7
87683788,0,1,7
87700428,0,0,7
87717080,0,1,7
87733708,0,0,7
87750344,0,0,7
87766984,0,0,7
87783636,0,0,7
87800280,0,0,7
87816920,0,0,7
87833540,0,0,7
87850196,0,0,7
87866828,0,0,7
87883468,0,0,7
87900112,0,0,7
87916764,0,0,7
87933384,0,0,7
87950028,1,0,7
87966664,0,0,7
87983316,0,0,7
87999956,0,0,7
88016596,0,0,7
88033220,0,0,7
88049872,0,0,7
88066504,0,0,7
88083148,0,1,7
88099784,0,0,7
88116448,0,1,7
88133076,0,0,7
88149704,0,0,7
88166340,0,0,7
88182992,0,0,7
88199636,0,1,7
88216276,0,0,7
88232912,0,0,7
88249556,0,0,7
88266188,0,0,7
88282828,1,0,7
88299460,0,0,7
88316120,0,0,7
88332756,0,0,7
88349384,0,0,7
88366020,0,0,7
88382676,0,1,7
88399316,0,0,7
88415960,1,0,7
88432584,1,0,7
88449236,0,0,7
88465868,0,0,7
88482512,0,0,7
88499148,0,1,7
88515800,0,0,7
88532424,0,0,7
88549064,0,0,7
88565704,0,1,7
88582352,0,0,7
88598996,1,0,7
88615636,1,0,7
88632260,0,0,7
88648916,0,0,7
88665548,0,0,7
88682188,0,0,7
88698824,0,1,7
88715484,0,0,7
88732108,0,1,7
88748748,0,0,7
88765384,0,0,7
88782036,0,0,7
88798680,0,0,7
88815316,0,0,7
88831940,1,0,7
88848596,0,1,7
88865228,0,0,7
88881872,0,0,7
88898512,0,0,7
88915156,0,0,7
88931784,0,0,7
88948428,1,0,7
88965060,0,0,7
88981716,0,0,7
88998360,0,1,7
89015000,0,0,7
89031620,0,0,7
89048276,0,0,7
89064908,0,0,7
89081548,0,0,7
89098192,0,0,7
89114836,0,0,7
89131464,0,0,7
89148108,0,0,7
89164744,1,0,7
89181396,0,0,7
89198040,0,0,7
89214676,0,0,7
89231316,0,1,7
89247952,0,0,7
89264588,0,1,7
89281236,0,0,7
89297872,1,0,7
89314520,0,0,7
89331148,0,1,7
89347784,0,0,7
89364420,0,1,7
89381076,0,0,7
89397720,0,0,7
89414356,0,0,7
89430980,0,0,7
89447636,0,0,7
89464268,0,1,7
89480908,0,0,7
89497556,0,1,7
89514204,0,0,7
89530832,1,0,7
89547472,0,1,7
89564100,0,0,7
89580756,0,0,7
89597392,0,1,7
89614032,0,0,7
89630660,0,0,7
89647316,0,0,7
89663948,0,1,7
89680588,0,0,7
89697232,0,0,7
89713888,1,1,7
89730508,0,1,7
89747148,0,0,7
89763784,0,0,7
89780444,0,0,7
89797076,0,0,7
89813708,0,0,7
89830340,0,0,7
89846996,0,0,7
89863624,0,0,7
89880268,0,0,7
89896916,0,1,7
89913564,0,0,7
89930192,0,1,7
89946828,0,0,7
89963460,0,1,7
89980128,0,0,7
89996756,0,0,7
90013388,0,0,7
90030020,0,0,7
90046668,0,0,7
90063308,0,1,3
90079956,0,0,3
90096592,0,0,3
90113244,0,0,3
90129872,0,1,3
90146508,0,0,3
90163140,0,0,3
90179804,1,0,3
90196440,0,1,3
90213076,0,0,3
90229700,0,1,3
90246360,0,1,3
90262988,0,0,3
90279640,0,1,3
90296272,0,0,3
90312920,0,0,3
90329548,0,0,3
90346188,0,1,3
90362820,0,0,3
90379480,0,1,3
90396116,0,0,3
90412756,0,0,3
90429380,0,0,3
90446036,0,0,3
90462668,0,0,3
90479320,1,0,3
90495952,0,0,3
90512608,1,0,3
90529228,0,0,3
90545872,0,0,3
90562508,0,0,3
90579156,0,0,3
90595800,0,1,3
90612436,0,0,3
90629060,0,0,3
90645716,0,0,3
90662348,0,0,3
90679000,1,0,3
90695632,0,0,3
90712280,0,0,3
90728908,0,1,3
90745544,0,0,3
90762184,0,0,3
90778848,0,0,3
90795480,0,0,3
90812116,1,0,3
90828748,0,0,3
90845388,0,0,3
90862028,1,0,3
90878668,0,0,3
90895312,0,1,3
90911956,0,0,3
90928588,0,1,3
90945224,0,0,3
90961872,0,0,3
90978520,0,0,3
90995160,0,0,3
91011796,0,0,3
91028420,0,0,3
91045080,0,1,3
91061708,0,0,3
91078360,0,1,3
91094988,0,0,3
91111636,0,1,3
91128268,0,0,3
91144908,0,1,3
91161548,0,0,3
91178208,0,0,3
91194836,0,0,3
91211464,0,0,3
91228100,0,0,3
91244756,0,1,3
91261388,0,0,3
91278044,0,1,3
91294672,0,0,3
91311316,1,0,3
91327948,0,0,3
91344584,0,0,3
91361220,0,0,3
91377884,1,0,3
91394516,0,0,3
91411148,0,0,3
91427780,0,0,3
91444436,0,1,3
91461064,0,0,3
91477720,0,0,3
91494352,0,0,3
91510992,0,0,3
91527624,0,0,3
91544268,0,0,3
91560904,0,1,3
91577568,0,0,3
91594192,0,0,3
91610828,0,1,3
91627460,0,0,3
91644116,0,0,3
91660748,0,1,3
91677396,0,0,3
91694032,0,0,3
91710672,0,0,3
91727308,0,0,3
91743948,0,0,3
91760584,0,0,3
91777240,0,0,3
91793880,0,1,3
91810504,0,0,3
91827140,0,1,3
91843792,0,0,3
91860436,0,0,3
91877076,0,0,3
91893708,0,0,3
91910356,1,0,3
91926988,0,0,3
91943624,0,0,3
91960260,0,0,3
91976920,0,1,3
91993544,0,0,3
92010188,0,1,3
92026820,0,0,3
92043476,0,0,3
92060116,0,0,3
92076760,0,0,3
92093392,0,0,3
92110036,0,0,3
92126668,0,1,3
92143308,0,0,3
92159952,1,0,3
92176596,0,0,3
92193236,1,0,3
92209876,0,0,3
92226504,0,1,3
92243156,0,0,3
92259792,0,0,3
92276440,0,0,3
92293068,1,0,3
92309716,0,1,3
92326348,0,0,3
92342992,1,0,3
92359620,0,0,3
92376284,0,1,3
92392916,1,0,3
92409544,0,0,3
92426184,0,0,3
92442832,0,0,3
92459468,1,0,3
92476112,0,0,3
92492752,0,0,3
92509396,0,0,3
92526024,0,0,3
92542668,0,1,3
92559312,0,0,3
92575964,0,0,3
92592596,0,0,3
92609236,4,1,3
92625860,4,0,3
92642516,4,0,3
92659144,36,0,3
92676828,16,0,3
92694512,1,9,3
92711160,9,4,3
92727792,9,4,3
92744436,1,0,3
92761072,49,1,3
92778756,64,4,3
92796436,4,1,3
92813076,0,1,3
92829732,1,9,3
92846356,25,4,3
92864036,49,36,3
92882744,25,0,3
92900444,25,121,3
92920192,1,36,3
92937868,16,9,3
92955548,9,16,3
92973236,0,1,3
92989880,0,4,3
93006516,1,0,3
93023140,4,0,3
93039800,4,1,3
93056436,9,4,3
93073080,1,4,3
93089708,0,1,3
93106356,4,4,3
93122992,16,1,3
93140672,1,25,3
93158336,1,25,3
93176032,0,1,3
93192676,0,1,3
93209320,25,1,3
93226984,16,1,3
93244684,16,9,3
93262368,49,16,3
93281076,49,0,3
93298764,9,49,3
93316444,1,0,3
93333076,1,1,3
93349724,4,9,3
93366356,0,1,3
93383004,0,4,3
93399632,36,0,3
93417312,1,4,3
93433968,36,1,3
93451636,16,1,3
93469320,1,9,3
93485948,4,0,3
93502592,1,0,3
93519228,0,1,3
93535864,1,0,3
93552516,1,16,3
93570200,0,4,3
93586848,1,0,3
93603480,121,0,3
93622188,196,0,3
93640920,9,25,3
93658596,169,49,3
93678356,100,0,3
93697088,1,16,3
93714768,144,16,3
93734516,225,9,3
93753240,9,36,3
93770916,0,0,3
93787560,16,1,3
93805228,9,9,3
93821864,1,0,3
93838512,1,9,3
93855152,0,4,3
93871792,1,4,3
93888436,9,9,3
93905084,25,1,3
93922752,1,4,3
93939388,1,4,3
93956020,0,16,3
93973716,9,25,3
93991388,16,4,3
94009076,9,4,3
94025712,1,1,3
94042356,0,9,3
94058996,0,4,3
94075628,4,4,3
94092264,9,1,3
94108916,0,4,3
94125560,1,1,3
94142196,4,16,3
94159868,16,81,3
94178596,16,64,3
94197316,4,4,3
94213956,4,9,3
94230604,4,0,3
94247240,0,9,3
94263864,0,36,3
94281560,0,144,3
94300272,0,36,3
94317952,0,9,3
94334596,0,4,3
94351236,9,0,3
94367876,4,4,3
94384516,1,1,3
94401156,9,0,3
94417788,4,1,3
94434436,0,1,3
94451072,1,0,3
94467708,0,0,3
94484356,1,4,3
94500996,16,4,3
94518680,16,1,3
94536348,4,4,3
94552992,4,9,3
94569644,1,1,3
94586284,9,36,3
94603952,36,9,3
94621620,4,0,3
94638276,4,25,3
94655956,9,36,3
94673636,0,1,3
94690264,0,0,3
94706916,1,0,3
94723556,16,4,3
94741228,4,1,3
94757868,1,4,3
94774524,4,4,3
94791156,1,16,3
94808836,1,4,3
94825464,4,25,3
94843160,64,49,3
94861868,49,0,3
94879552,9,4,3
94896196,0,4,3
94912832,0,64,3
94930512,1,25,3
94948184,4,4,3
94964844,9,16,3
94982512,0,0,3
94999156,4,4,3
95015788,0,0,3
95032448,4,1,3
95049076,0,4,3
95065720,0,9,3
95082348,0,16,3
95100036,4,0,3
95116688,1,9,3
95133320,0,9,3
95149952,4,1,3
95166596,1,4,3
95183232,9,16,3
95200908,0,0,3
95217552,16,4,3
95235236,16,4,3
95252916,9,4,3
95269552,9,4,3
95286184,0,1,3
95302836,1,0,3
95319468,9,1,3
95336104,0,0,3
95352744,0,0,3
95369404,4,4,3
95386024,16,9,3
95403704,16,9,3
95421380,9,1,3
95438040,4,0,3
95454668,0,4,3
95471312,0,0,3
95487940,0,0,3
95504600,0,1,3
95521236,1,0,3
95537876,4,1,3
95554504,0,1,3
95571160,0,0,3
95587792,0,1,3
95604424,0,0,3
95621064,0,1,3
95637720,0,4,3
95654356,1,4,3
95670988,4,4,3
95687624,4,1,3
95704276,4,0,3
95720912,1,4,3
95737560,1,1,3
95754184,0,1,3
95770836,0,1,3
95787464,0,0,3
95804116,1,1,3
95820748,0,0,3
95837400,4,1,3
95854024,1,0,3
95870680,4,0,3
95887304,9,4,3
95903956,9,0,3
95920584,1,9,3
95937228,0,1,3
95953872,0,0,3
95970516,0,0,3
95987164,1,1,3
96003796,9,0,3
96020432,1,0,3
96037076,0,0,3
96053716,1,0,3
96070348,36,1,3
96088024,81,1,3
96105716,36,0,3
96123396,36,1,3
96141068,225,4,3
96159800,49,36,3
96178520,0,1,3
96195148,9,4,3
96211796,9,16,3
96229476,0,1,3
96246116,25,16,3
96264828,81,16,3
96283548,64,4,3
96301236,25,4,3
96318904,0,9,3
96335552,1,0,3
96352184,0,1,3
96368836,0,0,3
96385488,9,1,3
96402120,49,9,3
96419784,16,9,3
96437476,1,0,3
96454112,4,4,3
96470748,9,9,3
96487380,9,9,3
96504036,4,36,3
96521716,16,64,3
96540440,25,4,3
96558120,36,9,3
96575804,144,9,3
96594516,4,0,3
96611148,0,4,3
96627796,1,4,3
96644436,16,0,3
96662104,36,0,3
96679800,324,1,3
96698524,225,4,3
96717236,16,16,3
96735960,36,1,3
96753632,0,9,3
96770284,1,4,3
96786908,121,25,3
96806676,121,4,3
96825400,0,1,3
96842036,49,0,3
96859708,169,0,3
96878424,49,0,3
96896120,16,0,3
96913796,36,0,3
96931480,4,4,3
96948120,9,25,3
96965796,25,0,3
96983472,16,1,3
97001148,0,4,3
97017780,9,16,3
97035476,0,36,3
97053160,1,1,3
97069800,1,1,3
97086436,4,4,3
97103076,4,1,3
97119720,0,0,3
97136356,0,1,3
97152988,9,0,3
97169652,4,1,3
97186276,25,0,3
97203960,9,16,3
97221640,16,0,3
97239316,9,4,3
97255956,0,16,3
97273628,0,9,3
97290272,0,9,3
97306916,4,0,3
97323552,0,25,3
97341236,1,9,3
97357880,9,1,3
97374520,9,4,3
97391152,4,0,3
97407784,9,0,3
97424436,16,9,3
97442120,1,16,3
97459800,81,1,3
97477472,100,4,3
97496208,4,9,3
97512848,0,4,3
97529476,1,1,3
97546108,0,9,3
97562760,1,4,3
97579396,4,1,3
97596040,4,0,3
97612676,49,36,3
97631404,100,64,3
97651160,25,4,3
97668836,9,1,3
97685468,9,1,3
97702116,16,1,3
97719796,9,0,3
97736428,0,1,3
97753064,0,0,3
97769724,49,1,3
97787388,100,4,3
97806108,25,1,3
97823804,36,4,3
97841480,81,0,3
97859160,9,4,3
97875792,25,1,3
97893480,4,4,3
97910112,0,0,3
97926756,1,4,3
97943388,0,1,3
97960044,4,1,3
97976684,0,4,3
97993308,0,9,3
98009948,1,4,3
98026600,0,16,3
98044276,4,4,3
98060916,16,4,3
98078592,0,0,3
98095236,0,4,3
98111880,1,1,3
98128516,1,0,3
98145144,0,0,3
98161804,4,1,3
98178440,36,0,3
98196116,4,1,3
98212756,4,1,3
98229400,9,1,3
98246032,4,4,3
98262668,25,1,3
98280344,9,0,3
98297004,4,0,3
98313640,4,4,3
98330268,0,0,3
98346908,1,0,3
98363556,25,4,3
98381236,9,4,3
98397868,4,1,3
98414512,4,1,3
98431160,4,9,3
98447796,25,0,3
98465464,16,0,3
98483144,16,0,3
98500836,16,0,3
98518504,9,0,3
98535148,4,4,3
98551792,25,1,3
98569484,4,1,3
98586120,16,1,3
98603792,4,9,3
98620432,4,1,3
98637076,9,0,3
98653716,9,1,3
98670352,4,0,3
98687000,1,4,3
98703636,9,16,3
98721316,1,1,3
98737956,16,1,3
98755636,4,4,3
98772288,0,0,3
98788924,1,1,3
98805556,49,0,3
98823240,25,1,3
98840916,0,0,3
98857556,9,0,3
98874188,25,0,3
98891876,25,0,3
98909556,16,0,3
98927236,9,4,3
98943876,1,1,3
98960516,16,1,3
98978196,0,0,3
98994832,16,4,3
99012520,121,1,3
99031248,1,1,3
99047876,16,9,3
99065560,16,9,3
99083232,25,1,3
99100916,36,1,3
99118600,9,1,3
99135240,4,4,3
99151864,0,0,3
99168520,49,9,3
99186208,36,9,3
99203872,9,4,3
99220516,4,4,3
99237156,4,0,3
99253812,1,0,3
99270428,144,25,3
99290204,64,49,3
99308924,0,9,3
99325556,0,1,3
99342192,0,9,3
99358836,64,9,3
99376520,144,1,3
99395236,4,1,3
99411868,1,4,3
99428516,0,9,3
99445160,16,1,3
99462840,100,0,3
99481556,16,1,3
99499240,9,4,3
99515868,9,0,3
99532508,0,1,3
99549156,1,0,3
99565796,25,4,3
99583468,0,0,3
99600112,9,4,3
99616752,1,0,3
99633408,36,1,3
99651076,36,16,3
99669796,0,4,3
99686432,4,0,3
99703076,4,4,3
99719712,16,36,3
99738428,36,0,3
99756120,49,25,3
99774836,49,1,3
99792512,25,0,3
99810188,16,0,3
99827872,1,0,3
99844516,9,1,3
99861156,16,49,3
99879860,0,9,3
99896516,1,0,3
99913152,100,0,3
99931876,289,9,3
99950580,81,25,3
99969320,0,4,3
99985964,81,1,3
100003632,49,4,3
100022364,4,1,3
100040036,1,4,3
100057708,25,25,4
100077468,1,0,4
100095160,9,1,4
100112836,1,4,4
100130512,49,4,4
100149224,25,1,4
100167956,0,16,4
100186688,1,9,4
100204360,36,1,4
100223080,49,1,4
100241804,64,0,4
100260508,144,16,4
100281308,121,16,4
100302112,16,16,4
100321876,1,25,4
100340600,1,9,4
100358288,49,1,4
100377000,100,1,4
100396764,100,1,4
100416516,9,1,4
100434200,1,4,4
100451884,9,9,4
100469556,16,1,4
100488280,0,1,4
100505952,9,9,4
100523628,9,1,4
100541316,1,9,4
100558996,0,1,4
100576684,36,1,4
100595392,121,9,4
100615148,1,4,4
100632844,9,1,4
100650516,16,1,4
100669228,100,16,4
100690048,49,4,4
100708764,9,0,4
100726436,4,1,4
100744112,1,0,4
100761796,9,0,4
100779472,0,1,4
100797160,36,9,4
100815868,16,0,4
100834600,0,0,4
100852268,4,0,4
100869952,9,0,4
100887640,16,1,4
100906360,0,1,4
100924040,25,9,4
100942748,16,1,4
100961484,0,0,4
100979148,36,0,4
100997880,1,4,4
101015560,9,0,4
101033232,9,4,4
101050912,0,4,4
101068588,36,0,4
101087328,36,4,4
101106040,4,1,4
101123708,0,0,4
101141384,0,0,4
101159072,4,0,4
101176744,36,0,4
101195472,16,0,4
101214196,0,1,4
101231880,0,1,4
101249556,4,16,4
101268280,16,4,4
101287000,4,0,4
101304676,196,4,4
101324424,256,16,4
101345236,196,36,4
101366048,676,16,4
101386844,144,9,4
101406588,0,16,4
101425320,0,4,4
101442996,16,16,4
101462756,4,36,4
101481460,9,4,4
101499160,9,9,4
101516848,9,16,4
101535564,0,1,4
101553240,9,4,4
101570920,16,9,4
101589640,1,4,4
101607316,16,0,4
101626048,4,1,4
101643708,9,4,4
101661396,1,144,4
101681152,16,144,4
101701964,25,16,4
101721716,36,0,4
101740448,4,4,4
101758120,0,36,4
101776832,1,0,4
101794516,1,49,4
101813232,9,4,4
101830920,0,9,4
101848604,1,9,4
101866276,16,1,4
101884996,9,1,4
101902680,4,9,4
101920352,4,0,4
101938036,1,16,4
101956756,0,1,4
101974436,0,4,4
101992104,4,0,4
102009784,36,0,4
102028524,0,1,4
102046200,36,1,4
102064916,9,4,4
102082596,1,1,4
102100276,0,0,4
102117956,1,4,4
102135636,25,0,4
102154364,4,36,4
102173084,9,25,4
102191788,16,1,4
102210496,16,0,4
102229236,4,0,4
102246908,0,0,4
102264592,0,1,4
102282276,4,0,4
102299956,0,1,4
102317636,4,25,4
102336348,0,0,4
102354044,0,16,4
102372756,0,1,4
102390440,1,25,4
102409148,0,0,4
102426848,1,0,4
102444524,1,4,4
102462192,4,100,4
102481952,1,36,4
102500688,9,16,4
102519380,25,256,4
102540192,64,484,4
102560996,25,100,4
102581808,36,25,4
102601560,16,36,4
102621312,0,289,4
102641068,9,1,4
102658744,25,121,4
102679548,16,4,4
102698280,81,25,4
102718036,49,25,4
102737792,1,36,4
102756524,4,100,4
102776276,0,1,4
102793956,1,64,4
102812668,16,0,4
102831400,4,64,4
102850120,25,1,4
102868840,1,9,4
102886520,0,64,4
102905236,16,0,4
102923956,9,144,4
102943696,36,100,4
102964524,9,196,4
102984276,25,225,4
103005076,1,49,4
103023804,16,729,4
103044596,81,81,4
103064360,49,9,4
103083084,4,16,4
103101800,9,25,4
103120516,4,25,4
103139224,0,64,4
103157956,49,36,4
103177720,16,9,4
103196440,0,9,4
103214120,0,4,4
103231796,0,36,4
103250520,1,64,4
103269224,0,16,4
103287952,4,0,4
103305644,1,0,4
103323324,49,81,4
103343064,81,961,4
103363876,4,1681,4
103384668,9,529,4
103404432,25,25,4
103424200,16,1,4
103442916,100,0,4
103462672,100,9,4
103482444,25,9,4
103501156,25,676,4
103521944,64,121,4
103542752,121,36,4
103563564,9,4,4
103581236,36,100,4
103602036,25,225,4
103622844,49,16,4
103642592,64,0,4
103661320,1,100,4
103681080,0,0,4
103698764,4,0,4
103716428,1,16,4
103735152,16,100,4
103755964,36,100,4
103776760,1,49,4
103795468,16,25,4
103815240,9,121,4
103835008,4,36,4
103853716,9,121,4
103873468,1,36,4
103892196,64,361,4
103913000,121,225,4
103934832,16,4,4
103953564,1,121,4
103973316,0,121,4
103993068,36,169,4
104013864,81,81,4
104033640,16,144,4
104054428,0,9,4
104072108,4,36,4
104090832,81,49,4
104110588,49,100,4
104131392,100,100,4
104153244,16,225,4
104174028,256,9,4
104193788,400,1,4
104213556,64,1,4
104232280,0,961,4
104252028,16,1444,4
104273868,144,25,4
104294676,25,16,4
104314420,121,289,4
104336276,225,1089,4
104359148,81,576,4
104379952,36,0,4
104398672,49,324,4
104419464,196,121,4
104441312,49,4,4
104460040,9,9,4
104477720,49,1,4
104496436,4,25,4
104515148,0,64,4
104533884,0,100,4
104553648,9,100,4
104573396,25,0,4
104592112,25,169,4
104612916,144,361,4
104634756,81,576,4
104655548,81,784,4
104676356,121,676,4
104698208,36,1,4
104716912,0,81,4
104735644,1,9,4
104753332,1,9,4
104770984,0,25,4
104789708,16,16,4
104809476,4,9,4
104827156,0,4,4
104844840,64,1369,4
104866660,196,4900,4
104889556,225,441,4
104911404,4,2500,4
104932184,841,6084,4
104955084,1089,1444,4
104979000,256,4,4
104998764,36,0,4
105017476,9,196,4
105037232,16,484,4
105058032,9,25,4
105076752,25,36,4
105096528,16,225,4
105117308,25,324,4
105138120,1,196,4
105157872,81,361,4
105178684,25,256,4
105199468,25,441,4
105220288,49,625,4
105241080,49,49,4
105260844,49,0,4
105279560,4,16,4
105298280,16,16,4
105318036,16,324,4
105338824,4,289,4
105358596,25,49,4
105378348,9,16,4
105397076,1,81,4
105415804,0,1,4
105433476,49,169,4
105454280,169,529,4
105476120,121,49,4
105496920,16,100,4
105517720,25,225,4
105538508,36,64,4
105558288,1,36,4
105577012,4,36,4
105595712,16,25,4
105615472,9,361,4
105635240,4,144,4
105654992,49,64,4
105674744,4,400,4
105694528,25,1225,4
105716344,16,900,4
105737148,16,4,4
105755884,1,324,4
105775632,25,81,4
105795396,25,16,4
105815152,16,36,4
105834924,1,100,4
105854672,16,144,4
105875472,4,81,4
105894200,0,841,4
105913948,4,400,4
105933716,81,36,4
105953488,1,1,4
105971152,16,676,4
105991956,169,169,4
106013804,36,169,4
106034604,1,4,4
106052276,25,1089,4
106074104,36,576,4
106094920,36,4,4
106113636,9,0,4
106131316,1,81,4
106150036,49,100,4
106170828,25,16,4
106190592,81,9,4
106209320,64,1,4
106228044,4,196,4
106247792,25,1089,4
106269620,144,729,4
106291488,100,256,4
106313320,49,400,4
106334108,225,484,4
106355948,196,144,4
106377796,4,49,4
106396516,1,36,4
106415236,36,4,4
106433964,4,324,4
106453716,16,529,4
106474516,1,16,4
106493244,1,576,4
106512984,25,361,4
106533792,81,289,4
106554592,36,49,4
106574360,4,0,4
106592028,9,81,4
106610764,1,225,4
106630508,121,2304,4
106653392,324,289,4
106675236,64,256,4
106696044,36,225,4
106716840,1,25,4
106735556,25,16,4
106755336,4,169,4
106775088,100,529,4
106796912,225,324,4
106818760,81,100,4
106839564,1,1,4
106857232,36,1,4
106875956,25,9,4
106894684,4,100,4
106914436,4,0,4
106932108,4,81,4
106950844,0,256,4
106970592,64,289,4
106991392,121,1,4
107011164,0,25,4
107029880,36,9,4
107048596,1,1,4
107066284,1,169,4
107086048,9,36,4
107104764,4,0,4
107122444,9,4,4
107140120,121,16,4
107160916,16,81,4
107180668,16,196,4
107201468,4,9,4
107219156,1,49,4
107237868,9,9,4
107255552,4,25,4
107274276,0,25,4
107292996,0,144,4
107312752,1,484,4
107332512,4,16,4
107351240,0,9,4
107368916,16,0,4
107387640,36,36,4
107407400,0,36,4
107426128,1,16,4
107444840,4,36,4
107463548,64,841,4
107484348,361,2401,4
107507240,256,81,4
107528028,36,441,4
107548844,25,361,4
107569636,4,64,4
107588360,4,225,4
107608120,9,256,4
107627884,4,100,4
107647640,1,289,4
107667392,289,196,4
107689236,256,25,4
107710032,4,25,4
107728752,64,36,4
107748516,36,64,4
107768276,1,4,4
107785956,0,100,4
107805720,0,100,4
107825472,1,0,4
107843156,0,9,4
107860840,9,100,4
107880596,81,729,4
107901392,324,1369,4
107924260,676,2809,4
107947144,676,3136,4
107970028,169,289,4
107991872,1,0,4
108009560,9,16,4
108028276,16,0,4
108046984,49,64,4
108066756,1,100,4
108086524,1,1,4
108104196,16,4,4
108122920,4,16,4
108141644,16,1,4
108160368,9,0,4
108178044,0,0,4
108195724,0,9,4
108213404,4,4,4
108231088,4,4,4
108248752,49,49,4
108268512,16,4,4
108287232,0,25,4
108305952,9,16,4
108324680,1,64,4
108343400,0,16,4
108362116,4,676,4
108381876,25,729,4
108402668,9,64,4
108421388,16,121,4
108442196,81,64,4
108461944,100,729,4
108483796,169,1296,4
108506660,169,961,4
108528512,16,484,4
108549324,0,0,4
108566992,16,36,4
108586760,196,16,4
108607556,144,225,4
108629400,25,324,4
108650188,100,441,4
108672032,100,169,4
108693872,16,0,4
108712588,1,64,4
108731300,100,676,4
108753156,576,1600,4
108776036,576,529,4
108797868,81,49,4
108817644,9,289,4
108837408,25,121,4
108858192,1,36,4
108876912,4,0,4
108894604,1,36,4
108913320,16,1,4
108932036,4,121,4
108951804,64,196,4
108972588,4,196,4
108992356,0,49,4
109011080,25,1,4
109029800,0,9,4
109047476,9,0,4
109065148,64,100,4
109085968,225,121,4
109107796,25,0,4
109126504,0,36,4
109145240,0,36,4
109163956,16,289,4
109184736,49,900,4
109205556,64,1521,4
109227396,64,676,4
109248192,49,49,4
109267956,4,4,4
109285636,25,196,4
109306436,4,400,4
109326200,4,100,4
109345964,4,16,4
109364668,4,64,4
109383404,1,121,4
109403160,1,9,4
109420836,1,9,4
109438508,36,196,4
109459312,64,484,4
109480112,121,100,4
109501940,289,529,4
109523788,100,961,4
109545636,36,121,4
109566440,64,49,4
109586196,0,64,4
109604928,9,121,4
109624680,36,196,4
109645472,0,1,4
109663152,1,49,4
109681888,0,1,4
109699556,36,0,4
109718268,64,0,4
109737004,16,9,4
109755724,0,81,4
109774444,49,484,4
109795224,144,576,4
109817076,64,49,4
109836836,0,0,4
109854512,4,1,4
109872196,0,25,4
109890916,4,64,4
109909624,9,64,4
109928352,0,0,4
109946040,4,64,4
109964752,64,81,4
109984512,49,16,4
110004276,1,529,4
110024036,81,2916,4
110045864,169,1681,4
110068764,289,361,3
110090604,36,36,3
110110352,0,49,3
110129068,9,1,3
110146756,100,4,3
110166516,36,4,3
110185232,4,100,3
110204996,9,144,3
110224756,1,0,3
110242432,49,0,3
110261148,324,49,3
110281952,81,9,3
110300676,1,4,3
110318348,9,0,3
110336040,4,9,3
110353724,9,100,3
110373476,36,196,3
110394268,25,121,3
110415092,9,324,3
110434836,16,529,3
110455628,81,36,3
110475396,81,1,3
110494120,9,1,3
110511804,0,9,3
110529464,1,289,3
110549244,16,225,3
110570036,4,144,3
110589784,81,625,3
110610596,16,100,3
110631396,25,64,3
110651156,25,25,3
110670912,64,729,3
110691712,100,625,3
110713556,25,9,3
110732272,4,81,3
110751004,9,9,3
110768680,1,81,3
110787400,16,144,3
110808196,36,961,3
110828996,9,441,3
110848760,81,1,3
110867488,36,1,3
110886212,9,16,3
110904920,16,9,3
110923632,100,196,3
110945480,289,324,3
110967328,64,9,3
110986036,16,81,3
111005796,144,9,3
111025552,196,0,3
111045308,49,0,3
111064020,16,49,3
111083800,25,169,3
111104596,1,0,3
111122276,16,400,3
111143080,81,625,3
111163876,16,4,3
111182592,9,49,3
111201316,16,4,3
111220036,1,1,3
111237712,1,9,3
111255388,1,25,3
111274116,9,100,3
111293876,4,16,3
111312600,64,4,3
111331308,144,1,3
111351088,49,49,3
111370828,81,324,3
111391628,49,49,3
111411400,9,9,3
111429076,0,16,3
111447792,0,196,3
111467552,16,64,3
111487312,1,81,3
111506036,4,484,3
111525784,9,289,3
111545560,16,9,3
111564280,4,289,3
111584032,9,16,3
111602760,0,25,3
111621488,4,64,3
111640196,49,196,3
111660992,49,121,3
111681792,64,64,3
111701556,49,64,3
111721316,16,9,3
111740036,0,0,3
111757716,1,25,3
111776432,0,36,3
111795144,9,9,3
111812836,16,0,3
111831552,0,36,3
111850280,0,169,3
111870048,9,9,3
111887716,0,289,3
111907468,25,25,3
111927232,4,256,3
111946996,169,484,3
111968828,100,225,3
111990672,16,16,3
112010444,0,1,3
112028116,0,81,3
112046832,25,289,3
112067632,16,196,3
112088440,9,81,3
112107144,49,9,3
112125872,64,4,3
112144592,0,16,3
112163304,49,256,3
112184108,49,144,3
112204932,4,64,3
112223652,9,324,3
112243396,36,64,3
112263140,16,36,3
112282920,0,1,3
112300592,0,81,3
112319316,4,9,3
112337008,9,64,3
112355728,49,289,3
112376512,36,100,3
112397296,25,144,3
112418116,25,144,3
112438904,36,64,3
112458672,100,121,3
112480508,121,361,3
112502352,64,961,3
112523160,16,121,3
112543960,1,225,3
112563716,16,81,3
112583468,4,0,3
112601160,1,400,3
112620920,1,1764,3
112641724,49,484,3
112662504,100,4,3
112682276,4,144,3
112702044,9,1444,3
112722828,144,1296,3
112745724,121,256,3
112767552,25,9,3
112786276,49,4,3
112805008,25,49,3
112824756,49,324,3
112845560,100,324,3
112867400,4,121,3
112887160,0,25,3
112905876,0,0,3
112923548,1,81,3
112942284,4,169,3
112962032,9,729,3
112981784,81,2116,3
113003632,100,841,3
113025480,81,169,3
113046260,36,225,3
113067084,81,484,3
113087860,289,1600,3
113110752,196,1225,3
113133636,169,196,3
113155476,64,9,3
113174196,0,16,3
113192912,4,9,3
113210592,25,36,3
113230364,49,4,3
113249076,64,196,3
113269884,1,4,3
113287568,25,16,3
113307320,36,1,3
113326020,100,81,3
113346844,196,144,3
113368676,196,0,3
113388436,4,4,3
113406116,16,1,3
113424840,36,16,3
113444596,49,1,3
113463316,49,9,3
113482036,16,9,3
113500752,196,1,3
113520508,841,36,3
113541320,289,36,3
113562112,49,9,3
113580840,1,25,3
113599560,16,1,3
113618276,0,9,3
113635952,9,0,3
113653628,16,16,3
113673396,16,25,3
113693156,0,1,3
113710828,4,4,3
113728504,9,1,3
113746200,4,9,3
113763888,1,36,3
113782596,1,0,3
113800276,0,9,3
113817956,0,9,3
113835636,4,1,3
113853312,0,1,3
113870996,1,1,3
113888680,1,0,3
113906360,4,1,3
113924032,0,9,3
113941716,1,1,3
113959400,4,16,3
113978120,9,9,3
113995792,0,4,3
114013472,9,36,3
114032196,25,121,3
114052992,16,0,3
114071716,25,121,3
114092512,0,81,3
114111232,4,16,3
114129964,1,25,3
114148684,49,121,3
114169476,49,4,3
114188192,9,9,3
114205872,169,121,3
114227708,36,0,3
114246428,1,1,3
114264124,0,36,3
114282840,16,0,3
114301548,36,49,3
114321308,4,25,3
114340036,16,1,3
114358748,9,9,3
114376432,0,16,3
114395160,16,1,3
114413884,1,1,3
114431564,16,100,3
114452352,9,25,3
114471084,16,0,3
114489796,1,4,3
114507472,0,9,3
114525144,4,0,3
114542844,1,1,3
114560520,1,4,3
114578200,1,4,3
114595880,36,1,3
114614596,25,9,3
114633320,0,25,3
114652036,4,36,3
114670764,1,25,3
114689464,0,16,3
114708192,0,16,3
114726900,4,0,3
114744596,4,1,3
114762284,0,0,3
114779948,0,4,3
114797640,0,1,3
114815328,0,1,3
114833000,1,4,3
114850664,0,25,3
114869404,4,49,3
114888112,16,25,3
114907872,9,4,3
114925544,1,1,3
114943236,0,4,3
114960924,0,0,3
114978592,1,36,3
114997316,4,81,3
115016048,4,36,3
115034748,0,1,3
115052432,0,1,3
115070112,0,0,3
115087792,4,0,3
115105464,16,0,3
115124188,1,0,3
115141872,0,36,3
115160596,0,16,3
115179316,1,1,3
115197008,0,4,3
115214684,4,9,3
115232356,4,9,3
115250032,9,0,3
115267716,4,16,3
115286436,0,16,3
115305156,4,1,3
115322820,16,25,3
115342592,4,49,3
115361328,4,0,3
115379000,4,1,3
115396680,0,1,3
115414352,0,9,3
115432036,1,64,3
115450756,9,25,3
115469484,4,9,3
115487160,0,1,3
115504840,0,1,3
115522512,1,4,3
115540192,0,4,3
115557864,0,4,3
115575552,1,0,3
115593236,9,0,3
115610904,0,25,3
115629632,1,81,3
115648356,0,16,3
115667072,0,49,3
115685800,1,121,3
115705556,9,36,3
115724268,9,9,3
115741968,1,4,3
115759644,1,0,3
115777316,0,0,3
115795004,1,1,3
115812680,4,16,3
115831392,0,0,3
115849064,9,9,3
115866756,0,4,3
115884432,0,0,3
115902108,1,9,3
115919792,1,9,3
115937476,0,1,3
115955160,1,1,3
115972836,0,0,3
115990512,1,1,3
116008196,0,4,3
116025876,0,1,3
116043552,0,4,3
116061240,0,1,3
116078928,0,1,3
116096596,1,0,3
116114268,4,0,3
116131956,0,0,3
116149636,1,0,3
116167320,1,0,3
116184988,0,0,3
116202688,0,0,3
116220360,0,0,3
116238032,1,0,3
116255700,4,4,3
116273400,0,25,3
116292124,1,16,3
116310828,0,0,3
116328516,1,0,3
116346212,1,0,3
116363868,0,1,3
116381560,4,4,3
116399248,16,1,3
116417952,0,0,3
116435628,16,0,3
116454344,36,0,3
116473080,25,0,3
116491796,9,1,3
116509468,9,9,3
116527156,16,16,3
116546920,16,1,3
116565636,1,0,3
116583308,100,0,3
116603072,81,16,3
116622828,4,4,3
116640508,9,16,3
116659228,64,529,3
116680036,25,1600,3
116701868,25,676,3
116722664,121,100,3
116744528,196,144,3
116766356,169,100,3
116788192,64,1,3
116806916,0,64,3
116825644,9,36,3
116844356,49,0,3
116863076,196,4,3
116882840,361,0,3
116902588,121,0,3
116922344,9,0,3
116940040,9,0,3
116957720,16,1,3
116976432,36,16,3
116996204,49,9,3
117014920,64,1,3
117033632,16,0,3
117052352,16,0,3
117071076,4,1,3
117088748,0,1,3
117106436,4,0,3
117124120,1,1,3
117141800,4,16,3
117160516,36,4,3
117179228,0,0,3
117196924,25,1,3
117215632,25,49,3
117235396,0,36,3
117254112,16,1,3
117272832,4,0,3
117290516,1,1,3
117308196,1,1,3
117325876,4,0,3
117343556,1,0,3
117361236,1,9,3
117378908,4,49,3
117397640,9,16,3
117416356,36,0,3
117435076,9,9,3
117452736,9,16,3
117471480,25,4,3
117490204,16,1,3
117508920,0,1,3
117526596,25,4,3
117545312,4,16,3
117564036,1,1,3
117581712,4,25,3
117600444,36,36,3
117620192,16,16,3
117639948,0,9,3
117657632,0,0,3
117675312,4,0,3
117692992,4,0,3
117710668,1,0,3
117728356,4,0,3
117746040,0,1,3
117763712,4,4,3
117781388,36,0,3
117800112,4,9,3
117817792,1,9,3
117835480,16,1,3
117854184,0,4,3
117871884,25,0,3
117890612,0,1,3
117908268,0,1,3
117925952,1,9,3
117943636,9,9,3
117961316,25,0,3
117980036,9,0,3
117997716,1,1,3
118015396,0,4,3
118033076,1,0,3
118050756,9,0,3
118068440,64,0,3
118087148,16,0,3
118105868,4,1,3
118123556,4,4,3
118141236,0,4,3
118158916,36,0,3
118177636,36,9,3
118196360,1,0,3
118214036,9,16,3
118232760,4,4,3
118250424,81,9,3
118269156,16,9,3
118287868,16,4,3
118306584,36,4,3
118325316,36,0,3
118344036,36,1,3
118362756,36,4,3
118381468,16,0,3
118400200,4,4,3
118417876,81,0,3
118436588,100,4,3
118456360,16,4,3
118475088,1,1,3
118492756,9,1,3
118510432,0,4,3
118528116,0,0,3
118545796,25,4,3
118564512,36,4,3
118583232,9,1,3
118600924,9,1,3
118618600,4,9,3
118636276,1,4,3
118653960,1,1,3
118671644,16,0,3
118690348,25,9,3
118709080,36,9,3
118727796,25,1,3
118746516,16,0,3
118765224,1,0,3
118782916,1,0,3
118800600,9,0,3
118818284,9,4,3
118835952,0,1,3
118853640,16,4,3
118872356,36,9,3
118891068,4,9,3
118908752,4,0,3
118926436,16,4,3
118945164,1,4,3
118962836,9,1,3
118980512,4,16,3
118999244,4,0,3
119016908,4,0,3
119034588,1,1,3
119052268,1,0,3
119069960,25,1,3
119088680,36,4,3
119107388,1,1,3
119125076,0,0,3
119142760,4,1,3
119160440,25,9,3
119179148,9,1,3
119196836,16,4,3
119215556,36,4,3
119234268,16,4,3
119252992,4,4,3
119270684,1,4,3
119288356,16,1,3
119307068,9,0,3
119324756,0,0,3
119342432,0,0,3
119360116,36,9,3
119378840,0,9,3
119396516,1,4,3
119414196,4,1,3
119431876,4,0,3
119449540,0,9,3
119467236,0,0,3
119484916,4,9,3
119502596,9,4,3
119520284,1,1,3
119537960,4,1,3
119555636,1,0,3
119573312,1,4,3
119591004,1,0,3
119608676,0,0,3
119626356,1,0,3
119644032,1,0,3
119661716,9,4,3
119679396,4,9,3
119697076,9,4,3
119714752,36,1,3
119733472,16,0,3
119752196,9,1,3
119769876,64,4,3
119788600,49,1,3
119807320,64,1,3
119826040,9,0,3
119843712,121,4,3
119863484,1,4,3
119881156,1,0,3
119898836,1,0,3
119916504,4,0,3
119934196,4,0,3
119951864,0,9,3
119969552,4,1,3
119987232,0,0,3
120004916,36,0,3
120023636,100,0,3
120043396,49,0,3
120062116,4,1,7
120079796,1,1,7
120097476,16,4,7
120116196,81,1,7
120134920,25,9,7
120153644,4,0,7
120171308,0,1,7
120188996,4,1,7
120206676,0,4,7
120224356,16,4,7
120243076,25,4,7
120261800,16,9,7
120280520,0,4,7
120298192,64,4,7
120316908,100,1,7
120336672,16,0,7
120355400,4,9,7
120373076,9,4,7
120390756,0,4,7
120408440,9,16,7
120427160,36,9,7
120445864,16,4,7
120464596,16,4,7
120483312,4,0,7
120500984,0,0,7
120518676,0,1,7
120536364,1,0,7
120554036,1,4,7
120571708,16,1,7
120590440,25,0,7
120609156,16,1,7
120627880,25,1,7
120646592,4,1,7
120664276,9,4,7
120681956,1,1,7
120699628,4,0,7
120717308,16,0,7
120736032,0,9,7
120753716,25,36,7
120773476,64,4,7
120792196,64,1,7
120810928,4,9,7
120828592,16,4,7
120847304,16,0,7
120866036,0,0,7
120883716,1,0,7
120901396,9,4,7
120919072,25,0,7
120937796,121,16,7
120958588,81,4,7
120977312,25,0,7
120996040,1,1,7
121013716,1,4,7
121031388,0,4,7
121049064,0,1,7
121066756,1,0,7
121084440,36,1,7
121103156,196,4,7
121122916,36,16,7
121142680,81,0,7
121161396,256,25,7
121182188,25,25,7
121201964,9,0,7
121219640,0,1,7
121237316,4,0,7
121254996,0,1,7
121272676,25,4,7
121291400,25,1,7
121310112,1,16,7
121328836,16,64,7
121348592,289,64,7
121369396,289,0,7
121389172,4,0,7
121406840,25,4,7
121425560,1,1,7
121443236,9,1,7
121460928,0,1,7
121478584,16,0,7
121497312,16,1,7
121516028,0,0,7
121533720,81,4,7
121552436,121,25,7
121573232,9,49,7
121591956,49,9,7
121610668,100,0,7
121630436,169,1,7
121650204,144,4,7
121669956,4,0,7
121687628,64,0,7
121706356,121,1,7
121726116,100,1,7
121745872,0,1,7
121763552,4,25,7
121782280,144,81,7
121803076,484,9,7
121822828,64,1,7
121841552,36,0,7
121860284,49,4,7
121878996,49,1,7
121897720,49,0,7
121916444,25,1,7
121935156,64,0,7
121953868,0,4,7
121971552,25,0,7
121990292,36,4,7
122009016,36,1,7
122027712,4,1,7
122045384,1,0,7
122063076,0,4,7
122080744,16,4,7
122099468,9,4,7
122117164,25,64,7
122136916,256,4,7
122156668,25,4,7
122175384,81,0,7
122194116,121,0,7
122213884,0,1,7
122231552,169,25,7
122252356,100,16,7
122273160,1,0,7
122290836,121,0,7
122310592,144,1,7
122330360,0,9,7
122348032,9,1,7
122365708,0,0,7
122383396,0,0,7
122401084,4,1,7
122418748,0,0,7
122436428,4,0,7
122454116,0,0,7
122471796,1,0,7
122489476,1,0,7
122507148,0,1,7
122524840,1,1,7
122542520,1,0,7
122560192,16,0,7
122578912,1,0,7
122596596,1,0,7
122614272,4,0,7
122631948,49,144,7
122652760,1,1369,7
122673572,121,2601,7
122696420,0,1089,7
122717240,36,225,7
122738044,1,64,7
122756756,4,64,7
122775468,4,121,7
122795240,144,49,7
122816040,25,0,7
122834748,4,16,7
122853472,0,81,7
122872200,25,100,7
122892996,169,0,7
122912752,196,121,7
122934596,36,25,7
122954356,1,1,7
122972032,0,1,7
122989724,1,9,7
123007400,0,0,7
123025068,16,0,7
123043796,1,1,7
123061476,361,9,7
123081236,484,36,7
123102036,121,9,7
123121796,9,1,7
123139476,0,4,7
123157156,1,0,7
123174820,0,0,7
123192516,1,4,7
123210200,1,1,7
123227876,16,0,7
123246584,36,1,7
123265328,4,1,7
123282988,0,0,7
123300668,1,1,7
123318352,1,0,7
123336036,0,0,7
123353708,1,0,7
123371388,9,0,7
123389080,4,1,7
123406768,0,0,7
123424432,0,0,7
123442112,0,0,7
123459796,1,1,7
123477464,0,0,7
123495148,0,1,7
123512840,0,1,7
123530520,0,0,7
123548200,0,0,7
123565880,0,0,7
123583564,0,0,7
123601236,0,0,7
123618916,0,0,7
123636584,1,0,7
123654276,1,0,7
123671960,0,1,7
123689624,1,0,7
123707312,0,0,7
123725008,0,0,7
123742668,0,0,7
123760348,0,0,7
123778020,0,0,7
123795716,0,0,7
123813396,0,0,7
123831072,0,0,7
123848768,0,0,7
123866436,0,0,7
123884120,1,0,7
123901800,0,1,7
123919476,0,1,7
123937152,0,0,7
123954828,0,0,7
123972508,0,0,7
123990196,0,0,7
124007880,0,0,7
124025560,0,1,7
124043228,0,0,7
124060916,0,0,7
124078588,0,0,7
124096276,0,0,7
124113952,0,0,7
124131636,0,0,7
124149316,0,0,7
124167000,0,0,7
124184672,0,0,7
124202352,0,0,7
124220028,0,0,7
124237704,0,0,7
124255392,0,0,7
124273068,0,1,7
124290756,0,0,7
124308432,0,0,7
124326128,0,1,7
124343800,0,0,7
124361464,0,0,7
124379156,0,1,7
124396832,0,0,7
124414508,0,0,7
124432184,0,0,7
124449880,0,0,7
124467564,0,0,7
124485240,0,1,7
124502908,0,0,7
124520592,0,0,7
124538276,0,0,7
124555948,0,1,7
124573620,1,0,7
124591312,0,0,7
124609000,0,1,7
124626676,0,0,7
124644360,0,0,7
124662036,0,0,7
124679716,0,0,7
124697392,1,0,7
124715076,0,0,7
124732752,0,0,7
124750428,0,0,7
124768116,0,0,7
124785808,0,0,7
124803476,0,0,7
124821148,0,0,7
124838820,0,0,7
124856512,0,0,7
124874188,0,0,7
124891868,0,0,7
124909548,0,0,7
124927248,0,0,7
124944928,0,1,7
124962584,0,0,7
124980276,0,0,7
124997952,1,0,7
125015628,0,0,7
125033308,0,0,7
125050996,0,0,7
125068672,0,0,7
125086348,0,0,7
125104032,0,0,7
125121712,0,0,7
125139388,0,0,7
125157068,0,0,7
125174748,0,1,7
125192432,0,0,7
125210120,1,0,7
125227800,0,0,7
125245476,0,0,7
125263164,0,1,7
125280836,1,0,7
125298508,1,0,7
125316196,0,0,7
125333876,0,0,7
125351548,0,0,7
125369244,0,0,7
125386928,0,0,7
125404600,0,0,7
125422284,0,1,7
125439948,0,1,7
125457624,0,0,7
125475304,0,0,7
125492984,0,0,7
125510676,0,0,7
125528356,0,0,7
125546036,0,0,7
125563708,0,0,7
125581396,0,0,7
125599072,0,0,7
125616744,0,0,7
125634424,0,0,7
125652112,0,1,7
125669796,0,0,7
125687476,0,0,7
125705152,0,0,7
125722836,0,0,7
125740516,0,0,7
125758188,0,0,7
125775860,0,0,7
125793556,0,0,7
125811236,0,1,7
125828916,0,0,7
125846604,1,0,7
125864276,1,0,7
125881960,0,1,7
125899628,0,0,7
125917316,0,0,7
125934996,0,0,7
125952664,1,0,7
125970344,0,0,7
125988048,0,0,7
126005720,0,1,7
126023396,0,0,7
126041064,0,1,7
126058756,0,0,7
126076440,1,0,7
126094120,0,0,7
126111808,0,0,7
126129476,0,0,7
126147156,0,0,7
126164840,0,1,7
126182528,0,0,7
126200196,0,0,7
126217868,0,0,7
126235544,0,0,7
126253236,0,1,7
126270908,0,0,7
126288588,0,0,7
126306272,0,1,7
126323964,0,0,7
126341628,0,0,7
126359308,0,1,7
126376992,0,0,7
126394676,0,0,7
126412348,0,0,7
126430040,0,0,7
126447716,0,0,7
126465400,0,0,7
126483080,0,0,7
126500744,0,0,7
126518436,0,0,7
126536104,0,0,7
126553784,0,0,7
126571460,1,0,7
126589156,0,0,7
126606836,0,0,7
126624508,0,4,7
126642196,0,0,7
126659876,0,0,7
126677544,0,0,7
126695224,0,0,7
126712916,0,0,7
126730592,0,0,7
126748276,0,0,7
126765952,0,4,7
126783640,0,0,7
126801324,1,0,7
126818988,0,0,7
126836660,0,0,7
126854344,0,0,7
126872028,0,0,7
126889720,0,0,7
126907392,0,0,7
126925072,0,0,7
126942760,0,1,7
126960428,0,0,7
126978116,0,0,7
126995796,0,1,7
127013472,0,1,7
127031160,0,1,7
127048844,0,0,7
127066528,0,0,7
127084200,1,0,7
127101856,9,0,7
127119560,16,1,7
127138264,1,0,7
127155948,0,0,7
127173620,0,0,7
127191324,1,0,7
127208992,0,0,7
127226676,0,0,7
127244364,0,0,7
127262048,1,0,7
127279704,0,0,7
127297388,0,0,7
127315076,0,0,7
127332752,0,0,7
127350440,1,1,7
127368104,1,0,7
127385800,0,0,7
127403480,0,0,7
127421160,0,4,7
127438832,0,0,7
127456516,0,0,7
127474196,0,0,7
127491868,0,0,7
127509556,0,0,7
127527248,1,0,7
127544916,0,0,7
127562596,0,0,7
127580276,0,0,7
127597952,0,0,7
127615628,0,0,7
127633308,0,1,7
127650992,0,0,7
127668668,0,0,7
127686348,0,0,7
127704032,0,0,7
127721716,0,0,7
127739384,0,0,7
127757072,1,1,7
127774756,0,0,7
127792440,0,1,7
127810116,1,0,7
127827800,0,0,7
127845484,0,0,7
127863168,0,1,7
127880836,1,0,7
127898508,0,0,7
127916192,0,0,7
127933868,0,1,7
127951544,0,0,7
127969220,1,0,7
127986916,0,0,7
128004596,1,0,7
128022280,0,0,7
128039956,0,0,7
128057636,0,0,7
128075308,0,0,7
128092988,1,0,7
128110676,0,1,7
128128352,0,0,7
128146040,0,0,7
128163720,0,0,7
128181404,0,0,7
128199076,0,0,7
128216752,0,1,7
128234420,0,0,7
128252116,0,0,7
128269784,0,0,7
128287480,0,1,7
128305152,0,0,7
128322836,0,0,7
128340524,0,0,7
128358196,0,0,7
128375872,0,0,7
128393552,0,0,7
128411228,0,1,7
128428908,0,0,7
128446596,0,0,7
128464288,0,0,7
128481960,0,1,7
128499632,0,0,7
128517316,0,0,7
128534984,0,0,7
128552664,0,0,7
128570340,0,0,7
128588036,0,0,7
128605724,0,0,7
128623396,0,1,7
128641080,0,0,7
128658752,0,0,7
128676428,0,4,7
128694104,1,0,7
128711796,1,0,7
128729472,0,0,7
128747144,0,0,7
128764828,0,0,7
128782516,0,0,7
128800200,0,0,7
128817868,0,1,7
128835544,0,4,7
128853240,0,1,7
128870904,0,0,7
128888600,0,0,7
128906288,0,1,7
128923968,0,0,7
128941640,0,0,7
128959308,0,0,7
128977008,1,1,7
128994672,1,0,7
129012348,0,1,7
129030024,0,0,7
129047712,0,0,7
129065388,1,0,7
129083068,0,0,7
129100748,0,0,7
129118436,0,0,7
129136108,0,0,7
129153792,0,1,7
129171472,1,0,7
129189156,0,0,7
129206828,0,0,7
129224512,0,0,7
129242204,0,1,7
129259888,0,0,7
129277548,0,0,7
129295228,0,1,7
129312916,0,0,7
129330600,0,0,7
129348276,0,0,7
129365952,1,0,7
129383644,0,0,7
129401320,0,0,7
129418988,0,0,7
129436660,0,0,7
129454356,0,0,7
129472040,0,1,7
129489708,1,0,7
129507396,0,0,7
129525072,1,0,7
129542756,0,0,7
129560436,0,0,7
129578116,0,0,7
129595796,0,1,7
129613464,0,0,7
129631140,0,0,7
129648836,4,0,7
129666508,0,0,7
129684196,0,0,7
129701872,0,0,7
129719556,0,0,7
129737232,0,0,7
129754908,0,0,7
129772588,0,0,7
129790276,0,0,7
129807948,1,0,7
129825628,0,1,7
129843312,0,9,7
129860996,0,1,7
129878676,1,0,7
129896348,0,0,7
129914040,0,1,7
129931708,0,0,7
129949384,1,0,7
129967068,0,0,7
129984756,0,0,7
130002436,0,0,7
130020120,0,0,7
130037792,0,0,7
130055476,0,0,5
130073148,0,1,5
130090828,0,0,5
130108516,0,0,5
130126200,0,0,5
130143876,0,0,5
130161560,0,0,5
130179236,0,0,5
130196908,0,0,5
130214584,0,0,5
130232260,0,0,5
130249956,1,1,5
130267624,0,0,5
130285320,1,0,5
130303008,1,1,5
130320680,0,0,5
130338352,1,0,5
130356036,1,1,5
130373712,1,0,5
130391396,0,4,5
130409068,0,0,5
130426760,0,0,5
130444444,0,0,5
130462128,0,0,5
130479792,0,0,5
130497460,0,0,5
130515160,0,1,5
130532828,0,0,5
130550512,0,0,5
130568192,0,0,5
130585876,0,0,5
130603560,0,0,5
130621236,0,0,5
130638912,0,0,5
130656596,1,1,5
130674276,1,0,5
130691944,0,0,5
130709636,0,0,5
130727316,0,0,5
130745000,0,0,5
130762672,0,0,5
130780360,0,1,5
130798028,0,0,5
130815708,0,0,5
130833380,0,0,5
130851064,0,0,5
130868756,0,1,5
130886440,0,1,5
130904124,0,0,5
130921804,1,0,5
130939480,0,0,5
130957148,0,0,5
130974832,0,0,5
130992516,0,0,5
131010184,0,0,5
131027864,0,0,5
131045560,0,1,5
131063240,0,0,5
131080920,0,1,5
131098592,0,0,5
131116272,0,0,5
131133944,0,0,5
131151628,0,0,5
131169316,0,1,5
131187004,1,0,5
131204680,1,1,5
131222356,0,0,5
131240036,0,0,5
131257712,0,0,5
131275384,0,0,5
131293068,1,0,5
131310756,0,0,5
131328428,0,0,5
131346108,0,0,5
131363792,0,1,5
131381484,0,0,5
131399156,0,0,5
131416828,0,0,5
131434516,0,1,5
131452200,0,0,5
131469868,0,0,5
131487548,0,0,5
131505236,0,0,5
131522916,0,0,5
131540596,0,0,5
131558268,0,0,5
131575956,0,0,5
131593632,0,0,5
131611304,0,0,5
131628980,0,1,5
131646680,0,0,5
131664356,0,0,5
131682036,0,0,5
131699712,0,0,5
131717396,0,0,5
131735076,0,1,5
131752744,0,0,5
131770436,0,1,5
131788112,0,0,5
131805796,1,0,5
131823472,0,1,5
131841168,0,0,5
131858840,0,0,5
131876508,0,0,5
131894180,0,1,5
131911864,0,0,5
131929548,0,0,5
131947224,0,0,5
131964900,0,0,5
131982608,1,0,5
132000288,0,0,5
132017956,1,0,5
132035636,0,0,5
132053316,0,1,5
132070984,0,0,5
132088668,0,0,5
132106352,0,0,5
132124036,0,0,5
132141716,0,0,5
132159392,0,0,5
132177076,0,0,5
132194748,0,0,5
132212436,1,0,5
132230100,0,0,5
132247796,0,0,5
132265476,1,0,5
132283160,0,1,5
132300848,0,0,5
132318524,0,0,5
132336188,0,0,5
132353868,1,0,5
132371556,1,0,5
132389236,0,0,5
132406908,0,0,5
132424588,0,0,5
132442284,1,0,5
132459960,0,0,5
132477632,0,0,5
132495300,0,0,5
132512992,0,0,5
132530664,0,0,5
132548348,0,0,5
132566036,0,0,5
132583716,0,0,5
132601396,0,0,5
132619080,0,0,5
132636764,4,1,5
