Timestamp (micros),Sensor1 (mV),Sensor2 (mV),Label
53872,9025,3249,1
56096,441,196,1
58240,100,100,1
61704,361,529,1
79392,324,64,1
96028,0,36,1
110576,144,100,1
129312,81,16,1
145968,16,25,1
162600,25,9,1
178200,4,64,1
193792,100,4,1
210428,25,0,1
226036,16,16,1
242668,25,0,1
258288,9,9,1
272820,36,0,1
288428,16,1,1
304036,4,0,1
318604,25,0,1
334204,1,0,1
348752,4,0,1
363316,1,16,1
378924,1,0,1
393484,4,16,1
409064,0,0,1
423640,4,25,1
439236,0,1,1
453796,0,9,1
468356,1,9,1
482916,4,16,1
498508,0,1,1
513072,4,4,1
527632,0,16,1
543228,0,9,1
557784,9,9,1
572340,4,9,1
586916,4,4,1
601488,1,16,1
617076,4,0,1
631632,1,9,1
646196,1,1,1
660760,4,25,1
676356,0,0,1
690912,1,9,1
705468,1,0,1
720040,1,9,1
734592,0,0,1
749144,4,9,1
763720,0,1,1
778276,4,9,1
792848,1,1,1
807392,4,9,1
821964,9,4,1
836508,0,4,1
851072,4,16,1
866676,1,1,1
881240,1,16,1
896824,0,0,1
911392,4,16,1
926996,0,1,1
941552,1,4,1
956108,0,4,1
970660,4,16,1
986272,4,1,1
1000848,0,4,1
1016440,9,4,1
1032024,9,4,1
1047640,0,1,1
1063240,4,1,1
1078840,0,1,1
1094424,0,0,1
1110036,4,4,1
1125632,0,1,1
1141228,0,9,1
1156840,1,0,1
1172420,0,1,1
1188032,0,4,1
1203628,0,1,1
1219232,0,1,1
1234828,0,1,1
1250432,0,16,1
1267084,1,0,1
1282668,0,4,1
1298268,0,0,1
1313876,1,0,1
1329484,1,4,1
1345072,1,0,1
1360680,1,9,1
1376284,1,0,1
1391872,0,9,1
1407472,1,0,1
1423068,1,1,1
1438664,0,1,1
1454284,1,1,1
1469872,1,9,1
1485476,0,1,1
1501080,1,16,1
1517724,1,0,1
1533312,0,0,1
1548912,1,9,1
1564512,1,0,1
1580120,0,4,1
1595728,4,1,1
1611312,1,9,1
1626916,1,4,1
1642516,0,4,1
1658120,0,9,1
1673716,1,1,1
1689304,0,9,1
1704900,9,0,1
1720520,4,9,1
1736108,0,0,1
1751712,0,1,1
1767308,0,1,1
1782920,4,0,1
1798528,1,4,1
1814112,1,4,1
1829712,0,36,1
1846360,1,0,1
1861960,0,1,1
1877560,1,1,1
1893152,1,0,1
1908752,1,9,1
1924368,1,1,1
1939960,0,16,1
1956596,4,0,1
1972192,0,1,1
1987792,0,9,1
2003400,1,1,1
2018996,0,16,1
2035632,4,0,1
2051236,4,4,1
2066840,1,0,1
2082428,4,0,1
2098036,1,16,1
2114684,4,4,1
2130276,4,1,1
2145876,0,4,1
2161468,0,1,1
2177080,1,1,1
2192684,0,0,1
2208284,1,16,1
2224912,4,0,1
2240504,1,1,1
2256112,0,0,1
2271708,0,0,1
2287316,1,4,1
2302912,1,1,1
2318524,0,16,1
2335156,9,1,1
2350752,1,1,1
2366352,0,0,1
2381952,4,0,1
2397568,1,9,1
2413156,0,4,1
2428748,0,25,1
2445404,4,0,1
2460996,0,1,1
2476592,0,4,1
2492192,1,0,1
2507792,4,9,1
2523404,1,1,1
2538992,0,4,1
2554596,1,0,1
2570188,1,1,1
2585792,0,0,1
2601396,0,0,1
2616992,4,4,1
2632592,1,0,1
2648196,0,4,1
2663804,4,1,1
2679396,1,9,1
2694988,0,0,1
2710592,1,0,1
2726196,0,9,1
2741800,1,0,1
2757392,0,9,1
2772988,4,1,1
2788600,1,9,1
2804196,0,4,1
2819788,0,1,1
2835396,1,4,1
2850996,0,1,1
2866592,0,16,1
2883232,4,0,1
2898828,1,4,1
2914436,0,4,1
2930032,1,1,1
2945628,4,4,1
2961232,1,0,1
2976840,4,9,1
2992440,1,0,1
3008036,1,4,1
3023632,0,4,1
3039240,1,1,1
3054840,4,9,1
3070424,0,1,1
3086024,4,4,1
3101628,1,1,1
3117248,1,16,1
3133868,0,0,1
3149468,0,1,1
3165072,1,4,1
3180680,1,0,1
3196280,1,9,1
3211876,4,0,1
3227468,4,9,1
3243080,0,1,1
3258676,0,1,1
3274280,0,1,1
3289876,4,1,1
3305456,1,16,1
3322124,1,0,1
3337712,0,9,1
3353316,1,0,1
3368896,0,0,1
3384524,1,9,1
3400112,4,0,1
3415720,4,9,1
3431320,1,1,1
3446912,1,16,1
3463556,0,1,1
3479156,1,1,1
3494748,0,4,1
3510352,1,0,1
3525956,0,4,1
3541556,4,4,1
3557152,0,9,1
3572760,1,1,1
3588360,1,1,1
3603956,1,4,1
3619552,1,0,1
3635144,0,4,1
3650764,1,4,1
3666344,0,9,1
3681956,1,4,1
3697548,0,4,1
3713160,4,1,1
3728756,0,0,1
3744352,1,9,1
3759956,1,1,1
3775560,1,9,1
3791168,1,4,1
3806760,1,9,1
3822356,1,1,1
3837944,0,1,1
3853560,0,4,1
3869156,1,0,1
3884744,4,9,1
3900344,0,1,1
3915960,0,4,1
3931560,1,1,1
3947148,1,1,1
3962760,1,4,1
3978352,4,0,1
3993968,4,4,1
4009544,1,0,1
4025148,0,9,1
4040764,4,1,1
4056360,0,9,1
4071964,4,0,1
4087548,0,1,1
4103136,0,16,1
4119792,4,0,1
4135392,1,1,1
4151000,4,1,1
4166588,1,0,1
4182196,0,4,1
4197796,4,0,1
4213400,1,9,1
4228996,1,0,1
4244596,4,9,1
4260200,0,0,1
4275792,0,1,1
4291396,1,1,1
4306996,0,0,1
4322600,0,16,1
4339240,9,0,1
4354840,4,4,1
4370432,1,0,1
4386036,0,1,1
4401636,0,1,1
4417236,1,0,1
4432824,0,9,1
4448440,1,0,1
4464044,1,9,1
4479636,1,1,1
4495244,0,4,1
4510844,9,1,1
4526432,0,0,1
4542032,1,4,1
4557628,1,0,1
4573244,9,4,1
4588840,0,1,1
4604444,1,9,1
4620032,1,4,1
4635624,0,1,1
4651248,1,4,1
4666828,0,1,1
4682424,4,16,1
4699068,1,0,1
4714676,0,9,1
4730280,0,1,1
4745868,0,0,1
4761476,1,9,1
4777076,4,0,1
4792680,0,4,1
4808280,4,1,1
4823876,0,9,1
4839472,1,0,1
4855076,0,4,1
4870676,1,1,1
4886272,0,0,1
4901868,0,9,1
4917472,1,0,1
4933080,1,4,1
4948672,0,1,1
4964260,0,1,1
4979876,1,4,1
4995484,1,0,1
5011080,4,4,1
5026676,0,0,1
5042272,1,9,1
5057884,1,1,1
5073480,1,9,1
5089080,1,1,1
5104672,0,0,1
5120284,1,4,1
5135872,1,1,1
5151484,9,1,1
5167064,0,1,1
5182672,0,9,1
5198276,1,1,1
5213868,0,1,1
5229468,0,4,1
5245072,0,0,1
5260684,1,9,1
5276272,1,0,1
5291868,0,9,1
5307484,4,0,1
5323080,1,1,1
5338676,1,4,1
5354264,0,0,1
5369884,1,4,1
5385472,1,0,1
5401064,1,16,1
5417716,1,0,1
5433304,0,1,1
5448920,1,4,1
5464504,0,0,1
5480112,1,9,1
5495708,1,1,1
5511328,1,16,1
5527956,0,0,1
5543556,0,0,1
5559144,0,4,1
5574760,4,0,1
5590372,25,1,1
5606996,1,0,1
5622596,0,0,1
5638196,1,4,1
5653792,4,0,1
5669408,9,9,1
5684996,0,0,1
5700576,0,16,1
5717236,4,0,1
5732828,0,1,1
5748440,1,4,1
5764028,1,0,1
5779640,1,4,1
5795244,1,1,1
5810836,1,9,1
5826428,0,1,1
5842040,4,9,1
5857636,4,4,1
5873240,1,1,1
5888840,1,4,1
5904436,1,0,1
5920036,1,9,1
5935644,4,0,1
5951240,1,4,1
5966836,4,1,1
5982436,0,1,1
5998032,1,4,1
6013624,0,0,1
6029236,0,4,1
6044848,4,1,1
6060436,0,9,1
6076028,4,0,1
6091624,0,0,1
6107236,1,4,1
6122836,0,1,1
6138432,0,16,1
6155072,9,0,1
6170692,1,4,1
6186284,4,1,1
6201880,0,0,1
6217472,1,9,1
6233072,1,0,1
6248684,0,16,1
6265320,9,0,1
6280904,4,1,1
6296512,1,9,1
6312120,0,1,1
6327720,0,4,1
6343316,9,1,1
6358916,9,9,1
6374516,0,0,1
6390124,1,1,1
6405712,0,9,1
6421308,0,1,1
6436912,0,9,1
6452516,4,0,1
6468132,9,1,1
6483716,1,0,1
6499296,4,4,1
6514916,0,1,1
6530520,0,1,1
6546112,0,1,1
6561716,4,0,1
6577320,1,9,1
6592916,4,0,1
6608520,4,16,1
6625156,0,0,1
6640756,0,4,1
6656356,0,4,1
6671956,1,0,1
6687560,1,9,1
6703156,4,1,1
6718752,4,16,1
6735404,1,4,1
6751000,0,4,1
6766584,9,0,1
6782196,0,1,1
6797788,0,16,1
6814432,9,0,1
6830024,0,4,1
6845644,4,0,1
6861232,0,9,1
6876824,1,25,1
6893468,1,0,1
6909080,1,9,1
6924684,1,0,1
6940264,0,0,1
6955876,1,4,1
6971476,0,0,1
6987092,1,9,1
7002676,1,0,1
7018276,1,9,1
7033880,1,1,1
7049484,0,9,1
7065080,4,4,1
7080676,0,1,1
7096264,1,9,1
7111872,4,0,1
7127480,9,9,1
7143076,0,4,1
7158668,1,9,1
7174276,0,1,1
7189880,1,1,1
7205472,0,9,1
7221076,1,0,1
7236672,1,16,1
7253316,9,1,1
7268908,4,0,1
7284512,0,1,1
7300112,0,0,1
7315716,4,4,1
7331308,0,1,1
7346916,0,16,1
7363552,1,4,1
7379156,0,4,1
7394744,0,4,1
7410352,16,1,1
7426996,16,9,1
7443644,0,4,1
7459232,0,0,1
7474824,0,4,1
7490428,9,0,1
7506052,9,1,1
7521632,1,0,1
7537228,4,4,1
7552832,0,1,1
7568432,0,0,1
7584040,0,4,1
7599640,1,0,1
7615232,1,4,1
7630828,1,9,1
7646448,4,16,1
7663072,0,1,1
7678676,1,1,1
7694268,1,9,1
7709872,1,0,1
7725488,1,4,1
7741072,0,9,1
7756676,0,16,1
7773320,4,0,1
7788916,1,0,1
7804516,0,4,1
7820120,9,0,1
7835712,1,16,1
7852360,4,0,1
7867952,0,4,1
7883564,0,1,1
7899160,1,0,1
7914752,4,16,1
7931392,9,0,1
7947000,9,1,1
7962584,0,0,1
7978192,1,0,1
7993796,1,16,1
8010432,9,0,1
8026028,9,9,1
8041640,0,1,1
8057240,0,4,1
8072828,0,1,1
8088436,0,0,1
8104040,4,4,1
8119636,0,1,1
8135228,0,9,1
8150836,9,1,1
8166452,4,1,1
8182048,1,4,1
8197636,4,0,1
8213220,4,16,1
8229864,1,0,1
8245480,0,4,1
8261076,4,1,1
8276664,0,4,1
8292272,1,1,1
8307880,0,0,1
8323488,1,4,1
8339068,0,4,1
8354668,0,25,1
8371320,4,0,1
8386916,0,0,1
8402520,1,4,1
8418112,1,0,1
8433712,0,9,1
8449316,4,0,1
8464932,1,1,1
8480520,0,9,1
8496108,1,9,1
8511712,4,0,1
8527316,1,1,1
8542920,1,9,1
8558508,1,0,1
8574112,1,16,1
8590760,1,0,1
8606352,1,1,1
8621964,9,4,1
8637560,0,0,1
8653160,4,4,1
8668748,0,1,1
8684348,0,16,1
8701008,4,1,1
8716592,0,1,1
8732188,1,16,1
8748824,1,0,1
8764440,0,4,1
8780048,1,4,1
8795628,0,1,1
8811236,4,9,1
8826824,0,1,1
8842452,1,1,1
8858032,1,0,1
8873636,1,1,1
8889232,0,1,1
8904840,0,1,1
8920440,1,4,1
8936024,0,0,1
8951624,1,16,1
8968272,4,0,1
8983880,1,4,1
8999480,1,1,1
9015068,0,1,1
9030688,1,4,1
9046288,1,0,1
9061884,4,9,1
9077476,4,0,1
9093056,4,9,1
9108684,1,4,1
9124268,0,9,1
9139876,1,0,1
9155464,0,0,1
9171080,1,4,1
9186676,0,1,1
9202284,0,9,1
9217880,4,1,1
9233484,1,9,1
9249084,1,1,1
9264676,0,0,1
9280280,1,4,1
9295864,0,1,1
9311472,0,16,1
9328116,4,0,1
9343716,1,4,1
9359304,0,1,1
9374920,1,0,1
9390516,1,4,1
9406116,1,1,1
9421712,0,16,1
9438364,4,1,1
9453952,0,0,1
9469552,1,9,1
9485156,4,0,1
9500756,4,9,1
9516356,1,0,1
9531940,4,16,1
9548596,1,0,1
9564196,0,1,1
9579800,0,1,1
9595396,1,1,1
9610988,4,9,1
9626588,1,0,1
9642200,0,4,1
9657800,0,1,1
9673396,1,1,1
9688988,1,9,1
9704596,1,0,1
9720200,1,4,1
9735788,1,1,1
9751388,4,9,1
9767004,0,1,1
9782600,1,4,1
9798192,4,1,1
9813788,1,0,1
9829392,4,4,1
9844996,0,1,1
9860600,1,16,1
9877236,0,0,1
9892828,1,0,1
9908444,1,4,1
9924028,1,0,1
9939632,0,4,1
9955224,0,1,1
9970844,1,25,1
9987476,4,0,1
10003064,0,0,1
10019712,0,4,1
10036356,4,0,1
10052992,0,0,1
10069636,4,1,7
10086280,0,1,7
10102920,0,0,7
10119564,1,1,7
10136196,4,1,7
10152820,4,0,7
10169476,0,1,7
10186128,4,1,7
10202760,1,1,7
10219400,9,0,7
10236036,0,1,7
10252672,1,0,7
10269304,0,1,7
10285948,0,1,7
10302612,0,1,7
10319240,4,1,7
10335864,0,0,7
10352516,0,0,7
10369164,1,9,7
10385796,0,1,7
10402432,0,1,7
10419080,1,0,7
10435724,1,0,7
10452352,0,0,7
10468996,1,4,7
10485640,0,1,7
10502280,0,1,7
10518916,0,4,7
10535548,0,0,7
10552184,0,0,7
10568832,1,1,7
10585476,0,0,7
10602112,0,0,7
10618760,4,4,7
10635396,0,1,7
10652032,0,0,7
10668668,4,1,7
10685316,1,4,7
10701964,1,1,7
10718612,4,0,7
10735240,0,1,7
10751876,0,0,7
10768512,0,4,7
10785156,0,0,7
10801796,0,0,7
10818432,0,4,7
10835084,1,0,7
10851712,0,0,7
10868352,1,4,7
10884996,1,1,7
10901644,1,4,7
10918284,1,0,7
10934908,0,4,7
10951544,0,0,7
10968196,1,1,7
10984848,4,4,7
11001480,1,0,7
11018124,4,1,7
11034760,0,1,7
11051396,0,0,7
11068036,0,9,7
11084676,9,0,7
11101320,1,0,7
11117972,1,1,7
11134588,0,1,7
11151224,0,0,7
11167876,4,4,7
11184524,1,1,7
11201152,0,0,7
11217800,1,9,7
11234436,4,0,7
11251076,4,1,7
11267716,1,9,7
11284360,4,1,7
11301000,4,1,7
11317644,0,4,7
11334268,0,0,7
11350908,1,4,7
11367552,0,16,7
11385240,4,0,7
11401872,0,1,7
11418512,0,9,7
11435160,1,0,7
11451796,0,4,7
11468436,0,16,7
11486108,0,0,7
11502764,1,1,7
11519412,1,1,7
11536040,1,0,7
11552668,0,4,7
11569324,1,1,7
11585956,0,1,7
11602592,1,4,7
11619236,0,1,7
11635892,1,4,7
11652524,1,0,7
11669152,1,0,7
11685788,1,1,7
11702444,0,4,7
11719092,0,9,7
11735716,1,0,7
11752348,0,1,7
11769004,0,1,7
11785644,9,1,7
11802276,0,1,7
11818920,1,1,7
11835572,4,1,7
11852192,0,0,7
11868828,4,0,7
11885464,0,4,7
11902120,0,1,7
11918760,0,4,7
11935392,0,0,7
11952032,1,1,7
11968680,1,0,7
11985324,1,1,7
12001956,0,0,7
12018592,1,0,7
12035248,1,0,7
12051892,1,1,7
12068516,4,0,7
12085148,0,1,7
12101792,9,0,7
12118436,9,0,7
12135080,0,16,7
12152740,1,0,7
12169392,0,0,7
12186036,4,9,7
12202672,0,0,7
12219304,0,1,7
12235960,1,9,7
12252596,1,0,7
12269228,0,1,7
12285868,0,9,7
12302524,1,0,7
12319152,1,1,7
12335800,1,4,7
12352432,0,0,7
12369076,1,1,7
12385712,4,9,7
12402356,1,0,7
12418988,0,1,7
12435652,1,1,7
12452272,1,16,7
12469948,0,4,7
12486584,4,1,7
12503232,0,0,7
12519876,0,1,7
12536516,0,1,7
12553152,4,0,7
12569796,0,4,7
12586432,1,1,7
12603072,1,0,7
12619712,0,4,7
12636372,0,9,7
12653000,4,0,7
12669632,0,0,7
12686264,1,4,7
12702920,0,4,7
12719560,1,4,7
12736204,0,1,7
12752832,4,1,7
12769480,1,0,7
12786112,1,1,7
12802752,1,0,7
12819392,1,1,7
12836044,4,4,7
12852676,4,0,7
12869308,1,4,7
12885940,0,4,7
12902604,1,1,7
12919232,0,0,7
12935872,0,4,7
12952508,0,1,7
12969160,0,1,7
12985796,1,1,7
13002432,0,0,7
13019068,1,1,7
13035720,4,4,7
13052356,1,0,7
13068984,0,0,7
13085624,0,0,7
13102276,0,4,7
13118916,4,1,7
13135560,4,4,7
13152196,0,0,7
13168840,0,1,7
13185472,4,0,7
13202112,1,4,7
13218752,1,1,7
13235408,1,1,7
13252032,0,0,7
13268668,0,4,7
13285308,1,1,7
13301956,0,1,7
13318596,1,0,7
13335244,4,0,7
13351876,0,1,7
13368516,0,1,7
13385152,4,0,7
13401788,0,4,7
13418428,1,0,7
13435084,4,1,7
13451720,1,0,7
13468348,0,4,7
13484980,0,0,7
13501644,0,16,7
13519316,9,0,7
13535964,1,4,7
13552592,1,0,7
13569236,0,0,7
13585864,0,0,7
13602516,1,4,7
13619152,0,1,7
13635800,0,0,7
13652440,0,4,7
13669080,4,0,7
13685696,0,0,7
13702364,1,9,7
13718996,1,0,7
13735632,0,0,7
13752280,4,1,7
13768916,0,0,7
13785544,0,0,7
13802196,1,1,7
13818824,0,0,7
13835480,0,1,7
13852128,1,4,7
13868760,1,1,7
13885388,1,0,7
13902044,1,9,7
13918684,1,0,7
13935312,0,0,7
13951964,4,4,7
13968600,0,0,7
13985228,1,1,7
14001868,0,4,7
14018512,1,1,7
14035164,0,1,7
14051800,9,16,7
14069468,1,0,7
14086112,9,1,7
14102752,9,4,7
14119396,1,4,7
14136040,0,0,7
14152668,1,4,7
14169320,1,0,7
14185948,0,1,7
14202592,1,4,7
14219220,0,0,7
14235876,4,1,7
14252520,16,4,7
14270196,0,0,7
14286820,0,4,7
14303472,0,4,7
14320116,4,1,7
14336756,1,0,7
14353388,9,1,7
14370052,0,0,7
14386672,0,4,7
14403304,0,0,7
14419948,4,9,7
14436596,1,0,7
14453236,4,0,7
14469880,1,4,7
14486500,0,0,7
14503160,1,0,7
14519792,4,1,7
14536436,0,0,7
14553068,0,0,7
14569732,9,1,7
14586348,0,0,7
14602992,0,0,7
14619632,4,1,7
14636284,1,4,7
14652912,0,4,7
14669560,4,0,7
14686192,1,0,7
14702836,1,0,7
14719476,9,4,7
14736116,1,1,7
14752752,1,0,7
14769400,4,0,7
14786036,0,0,7
14802664,0,0,7
14819304,4,0,7
14835956,0,1,7
14852600,4,1,7
14869240,0,4,7
14885864,0,1,7
14902520,0,0,7
14919156,1,4,7
14935792,4,0,7
14952428,1,0,7
14969084,1,0,7
14985716,1,0,7
15002352,1,0,7
15018988,4,1,7
15035636,0,1,7
15052268,0,0,7
15068916,1,1,7
15085556,0,1,7
15102188,0,0,7
15118836,9,9,7
15135476,0,0,7
15152108,0,0,7
15168772,1,4,7
15185400,0,1,7
15202032,1,1,7
15218668,4,4,7
15235324,4,0,7
15251952,4,4,7
15268604,0,9,7
15285228,1,0,7
15301872,1,0,7
15318516,9,1,7
15335156,0,0,7
15351792,0,1,7
15368440,0,9,7
15385080,9,0,7
15401712,1,0,7
15418348,1,4,7
15434992,0,0,7
15451636,1,0,7
15468284,0,1,7
15484920,4,1,7
15501564,1,0,7
15518196,9,25,7
15535872,0,4,7
15552504,0,4,7
15569172,0,4,7
15585800,1,0,7
15602428,1,0,7
15619068,4,9,7
15635720,0,0,7
15652348,1,4,7
15669004,1,4,7
15685632,0,9,7
15702276,4,1,7
15718916,9,1,7
15735552,1,0,7
15752184,0,1,7
15768848,1,1,7
15785480,1,0,7
15802116,1,1,7
15818740,9,9,7
15835400,1,0,7
15852036,1,4,7
15868676,0,9,7
15885324,4,1,7
15901956,0,1,7
15918588,1,4,7
15935232,0,0,7
15951860,0,1,7
15968524,0,4,7
15985168,1,1,7
16001792,0,1,7
16018420,4,1,7
16035072,0,0,7
16051716,1,4,7
16068356,1,9,7
16084996,4,0,7
16101632,0,4,7
16118272,1,4,7
16134920,1,1,7
16151544,0,0,7
16168212,1,1,7
16184840,0,4,7
16201464,0,0,7
16218096,1,9,7
16234764,1,1,7
16251388,0,1,7
16268040,1,1,7
16284672,0,1,7
16301316,0,1,7
16317952,0,4,7
16334596,1,1,7
16351220,0,4,7
16367892,1,16,7
16385572,1,0,7
16402196,0,1,7
16418832,0,0,7
16435472,4,1,7
16452124,4,9,7
16468752,0,1,7
16485408,1,4,7
16502040,0,1,7
16518684,0,0,7
16535316,4,1,7
16551964,1,1,7
16568600,0,0,7
16585252,4,1,7
16601872,0,1,7
16618516,1,1,7
16635156,1,1,7
16651804,4,1,7
16668428,1,0,7
16685080,1,0,7
16701720,0,1,7
16718356,0,1,7
16735000,9,4,7
16751644,1,1,7
16768280,4,1,7
16784924,0,9,7
16801560,1,1,7
16818196,0,1,7
16834844,9,1,7
16851472,0,0,7
16868120,0,0,7
16884760,4,4,7
16901404,1,0,7
16918036,0,0,7
16934676,4,1,7
16951316,0,4,7
16967968,0,0,7
16984616,9,1,7
17001244,0,1,7
17017876,0,1,7
17034524,9,9,7
17051156,0,1,7
17067804,1,0,7
17084444,9,4,7
17101076,1,0,7
17117720,0,1,7
17134356,4,9,7
17151004,1,0,7
17167640,0,1,7
17184292,0,1,7
17200920,4,1,7
17217564,0,0,7
17234204,4,1,7
17250844,1,4,7
17267480,0,0,7
17284120,4,4,7
17300756,1,0,7
17317408,1,0,7
17334036,4,4,7
17350684,0,0,7
17367320,0,1,7
17383968,1,9,7
17400596,1,0,7
17417232,1,0,7
17433876,1,4,7
17450520,1,0,7
17467152,0,1,7
17483808,1,4,7
17500440,0,0,7
17517072,0,0,7
17533704,1,9,7
17550352,4,0,7
17567000,1,1,7
17583652,0,1,7
17600280,1,0,7
17616920,1,1,7
17633564,4,9,7
17650200,0,0,7
17666836,0,0,7
17683496,1,1,7
17700124,0,4,7
17716764,1,0,7
17733388,9,4,7
17750044,0,0,7
17766680,0,1,7
17783328,1,9,7
17799956,1,0,7
17816600,0,0,7
17833232,9,1,7
17849884,1,1,7
17866508,0,4,7
17883160,0,9,7
17899800,4,0,7
17916440,0,0,7
17933064,0,4,7
17949728,4,0,7
17966360,0,0,7
17983012,4,4,7
17999636,0,0,7
18016276,0,1,7
18032916,4,1,7
18049564,0,1,7
18066196,1,0,7
18082856,9,4,7
18099484,0,1,7
18116116,0,0,7
18132756,9,4,7
18149404,1,1,7
18166052,1,1,7
18182692,4,9,7
18199312,0,0,7
18215956,0,4,7
18232600,4,9,7
18249244,1,0,7
18265872,0,0,7
18282528,1,1,7
18299168,4,0,7
18315796,0,4,7
18332424,9,1,7
18349076,1,1,7
18365716,4,0,7
18382372,9,4,7
18398992,1,0,7
18415636,0,4,7
18432276,4,4,7
18448928,0,1,7
18465548,0,1,7
18482204,0,4,7
18498852,1,4,7
18515480,1,0,7
18532104,4,1,7
18548752,1,0,7
18565400,0,1,7
18582048,4,9,7
18598668,0,0,7
18615312,1,4,7
18631956,4,4,7
18648604,0,1,7
18665236,1,0,7
18681884,9,4,7
18698520,0,1,7
18715164,1,0,7
18731796,4,1,7
18748432,0,4,7
18765080,1,0,7
18781720,1,1,7
18798356,0,0,7
18814996,1,0,7
18831636,0,1,7
18848284,1,1,7
18864920,1,1,7
18881568,1,4,7
18898208,1,0,7
18914836,0,1,7
18931464,0,9,7
18948116,4,0,7
18964752,0,0,7
18981400,4,1,7
18998040,0,0,7
19014672,0,4,7
19031312,0,4,7
19047964,4,0,7
19064584,0,0,7
19081244,0,1,7
19097884,4,0,7
19114516,0,4,7
19131144,0,9,7
19147804,1,0,7
19164432,0,0,7
19181084,1,0,7
19197724,1,1,7
19214360,4,1,7
19230996,1,1,7
19247640,0,4,7
19264276,1,0,7
19280920,0,1,7
19297560,9,0,7
19314192,0,4,7
19330828,4,4,7
19347484,0,1,7
19364112,4,0,7
19380760,4,0,7
19397404,0,4,7
19414044,1,0,7
19430676,4,1,7
19447312,0,0,7
19463956,0,4,7
19480600,0,1,7
19497240,4,0,7
19513884,1,1,7
19530508,4,0,7
19547156,0,1,7
19563808,1,1,7
19580452,1,1,7
19597080,1,1,7
19613716,4,0,7
19630348,4,0,7
19647000,0,4,7
19663640,0,1,7
19680288,1,0,7
19696920,0,1,7
19713564,1,4,7
19730192,1,1,7
19746832,1,1,7
19763484,1,4,7
19780132,1,4,7
19796764,0,1,7
19813404,4,1,7
19830032,1,4,7
19846684,1,0,7
19863320,0,1,7
19879968,0,1,7
19896612,4,1,7
19913240,4,0,7
19929876,1,1,7
19946520,4,0,7
19963160,0,1,7
19979804,1,0,7
19996432,0,4,7
20013076,0,1,7
20029720,1,1,7
20046352,0,4,7
20063000,4,0,5
20079640,0,0,5
20096296,9,0,5
20112928,0,4,5
20129548,0,4,5
20146204,1,1,5
20162844,4,1,5
20179484,0,1,5
20196120,0,4,5
20212756,9,0,5
20229400,4,0,5
20246044,1,1,5
20262668,0,1,5
20279316,0,1,5
20295964,0,1,5
20312604,0,1,5
20329236,1,0,5
20345884,4,4,5
20362524,4,0,5
20379168,4,1,5
20395792,0,4,5
20412436,9,1,5
20429080,0,0,5
20445724,9,4,5
20462344,0,0,5
20478996,0,0,5
20495640,0,4,5
20512284,4,1,5
20528908,16,1,5
20546596,0,1,5
20563236,9,1,5
20579884,4,4,5
20596512,1,36,5
20614192,4,4,5
20630840,16,16,5
20649560,4,121,5
20668276,36,36,5
20686996,0,4,5
20703644,4,4,5
20720280,16,1,5
20737948,100,16,5
20757720,144,25,5
20777480,64,36,5
20796192,0,121,5
20814924,49,144,5
20834676,49,196,5
20854436,1,625,5
20873148,9,64,5
20890840,225,289,5
20911644,256,36,5
20931396,81,9,5
20949080,25,81,5
20967796,16,16,5
20986516,16,9,5
21004192,81,1,5
21021888,9,25,5
21039552,16,25,5
21058260,289,784,5
21079072,169,3600,5
21100916,25,2304,5
21121708,64,25,5
21140432,16,169,5
21160204,16,144,5
21179948,64,225,5
21199724,64,0,5
21217396,36,100,5
21237152,49,676,5
21256896,9,529,5
21275620,4,4,5
21292272,4,4,5
21308912,81,100,5
21328676,64,289,5
21348440,100,841,5
21369232,100,529,5
21390028,100,121,5
21410836,9,729,5
21429564,0,729,5
21448268,25,64,5
21466988,0,16,5
21484684,49,1,5
21502360,9,1,5
21518992,36,4,5
21536672,4,64,5
21554356,9,36,5
21572040,36,9,5
21589708,16,25,5
21608428,1,121,5
21627164,9,0,5
21643808,9,49,5
21661484,0,64,5
21679164,0,9,5
21695796,1,16,5
21713472,0,9,5
21730120,0,16,5
21747808,9,1,5
21764440,16,9,5
21782112,1,64,5
21799784,4,81,5
21817484,9,16,5
21835156,1,36,5
21852840,0,64,5
21870512,9,9,5
21887152,1,0,5
21903784,0,0,5
21920436,4,4,5
21937076,0,16,5
21954760,0,81,5
21972432,16,81,5
21991156,49,0,5
22008828,9,4,5
22025484,1,16,5
22043160,9,4,5
22059792,4,0,5
22076436,1,0,5
22093076,9,0,5
22109732,4,4,5
22126352,225,1,5
22145084,100,0,5
22163808,9,1,5
22180440,9,1,5
22197080,1,1,5
22213716,36,64,5
22232444,25,121,5
22252192,9,49,5
22269868,9,49,5
22287560,4,16,5
22305236,25,36,5
22323944,25,64,5
22342684,1,25,5
22360356,0,4,5
22377008,4,1,5
22393636,25,1,5
22411316,9,16,5
22428996,16,100,5
22448760,49,361,5
22468516,121,1,5
22487240,81,9,5
22504916,0,0,5
22521552,1,0,5
22538192,25,4,5
22555880,0,36,5
22573560,9,1,5
22590200,0,0,5
22606828,4,0,5
22623472,16,16,5
22642196,0,9,5
22658828,1,9,5
22675476,1,4,5
22692116,0,25,5
22709808,1,49,5
22727476,1,4,5
22744120,0,0,5
22760756,9,0,5
22777396,1,1,5
22794024,16,0,5
22811724,49,36,5
22830436,0,225,5
22849152,36,16,5
22867864,36,81,5
22886600,0,36,5
22904280,25,36,5
22922996,9,289,5
22941720,64,36,5
22960440,25,0,5
22978108,25,1,5
22995808,9,9,5
23012440,1,49,5
23030120,16,16,5
23048832,4,49,5
23066508,9,25,5
23084208,36,1,5
23101876,25,16,5
23120600,9,1,5
23137224,1,0,5
23153876,1,9,5
23170512,4,16,5
23188188,4,9,5
23204828,9,121,5
23223564,1,16,5
23241244,4,1,5
23257880,1,25,5
23275560,9,1,5
23292196,0,0,5
23308836,0,1,5
23325472,9,4,5
23342116,1,0,5
23358760,4,1,5
23375404,4,0,5
23392040,4,0,5
23408672,16,0,5
23426356,4,4,5
23442996,1,64,5
23460676,1,25,5
23478356,1,0,5
23494996,0,4,5
23511644,0,9,5
23528284,16,1,5
23545956,25,0,5
23563640,9,16,5
23581316,1,36,5
23598996,1,36,5
23616672,1,4,5
23633312,1,0,5
23649952,9,9,5
23666588,0,49,5
23684272,16,0,5
23701948,4,36,5
23719624,0,16,5
23737300,0,0,5
23753952,1,0,5
23770588,4,0,5
23787240,4,4,5
23803868,1,1,5
23820516,1,9,5
23837164,1,169,5
23855876,0,36,5
23873560,1,4,5
23890200,16,4,5
23907884,4,9,5
23924508,36,4,5
23942204,0,4,5
23958840,0,4,5
23975468,4,9,5
23992120,4,4,5
24008756,0,1,5
24025408,0,25,5
24043076,4,25,5
24060756,1,1,5
24077400,1,0,5
24094036,36,0,5
24111716,81,1,5
24129384,25,0,5
24147084,0,1,5
24163720,0,9,5
24180356,9,9,5
24196996,25,1,5
24214692,4,16,5
24232364,0,121,5
24251068,0,144,5
24269788,16,36,5
24288516,16,36,5
24307240,1,144,5
24325952,0,0,5
24342604,1,49,5
24360276,1,9,5
24376912,9,0,5
24393556,1,16,5
24411248,49,121,5
24431000,16,49,5
24449716,25,9,5
24467380,100,144,5
24488200,9,784,5
24506908,1,324,5
24525624,25,144,5
24545404,4,49,5
24563076,4,0,5
24579704,0,9,5
24596352,4,100,5
24615084,4,25,5
24632756,0,4,5
24649384,36,64,5
24668096,81,25,5
24686832,36,100,5
24706604,0,256,5
24725308,0,81,5
24743004,1,36,5
24760680,4,25,5
24778356,0,81,5
24796036,16,144,5
24815808,100,36,5
24835556,144,0,5
24854272,49,1,5
24871956,0,64,5
24889644,16,4,5
24907320,25,121,5
24927076,4,64,5
24944760,9,1,5
24961396,49,25,5
24980116,9,1,5
24996752,0,81,5
25014444,1,81,5
25032112,9,16,5
25049800,25,0,5
25067472,64,0,5
25085160,16,25,5
25103872,0,16,5
25121548,4,16,5
25139232,16,4,5
25156916,25,4,5
25174600,1,25,5
25192284,0,25,5
25209956,16,49,5
25228676,9,36,5
25246360,1,0,5
25262984,9,36,5
25280684,25,121,5
25300440,0,36,5
25318120,9,256,5
25336840,9,16,5
25354520,49,25,5
25373224,25,0,5
25390908,1,4,5
25407556,0,16,5
25425248,4,36,5
25442904,0,4,5
25459556,0,81,5
25477232,36,36,5
25495960,9,0,5
25512600,9,100,5
25531308,1,25,5
25549008,0,4,5
25565632,0,49,5
25583312,9,81,5
25600988,4,0,5
25617636,4,16,5
25635308,0,9,5
25651948,9,9,5
25668584,25,36,5
25687316,0,9,5
25703968,4,25,5
25721636,9,1,5
25738284,9,81,5
25755960,81,289,5
25775712,0,100,5
25794440,49,4,5
25812112,9,64,5
25829804,1,4,5
25846440,1,4,5
25863072,4,0,5
25879716,25,0,5
25897396,16,1,5
25915068,16,169,5
25934824,36,256,5
25954596,49,9,5
25972268,16,0,5
25989960,4,0,5
26006596,0,1,5
26023240,16,1,5
26040916,0,0,5
26057560,1,0,5
26074204,0,9,5
26090840,1,100,5
26109552,0,36,5
26127236,0,1,5
26143892,1,1,5
26160520,1,1,5
26177156,4,9,5
26193788,0,1,5
26210432,0,9,5
26227076,0,81,5
26244752,0,9,5
26261396,1,16,5
26279084,9,4,5
26295712,4,9,5
26312348,0,36,5
26330028,4,25,5
26347728,9,1,5
26364356,1,1,5
26380992,36,0,5
26398664,121,4,5
26417408,36,1,5
26435068,4,1,5
26451704,0,1,5
26468340,4,1,5
26484996,4,9,5
26501628,1,4,5
26518272,0,4,5
26534904,0,1,5
26551560,0,1,5
26568196,1,0,5
26584836,1,0,5
26601460,0,4,5
26618116,1,25,5
26635796,1,1,5
26652432,0,1,5
26669080,1,9,5
26685724,9,0,5
26702368,9,9,5
26719000,1,16,5
26736680,0,4,5
26753316,1,9,5
26769952,0,64,5
26787628,0,64,5
26805320,0,25,5
26822996,0,0,5
26839632,0,4,5
26856276,1,1,5
26872916,1,1,5
26889556,0,0,5
26906192,0,1,5
26922840,0,0,5
26939476,0,0,5
26956120,0,1,5
26972756,1,0,5
26989396,4,4,5
27006040,0,1,5
27022676,1,0,5
27039320,0,9,5
27055948,1,9,5
27072596,0,4,5
27089236,0,16,5
27106916,0,0,5
27123552,0,9,5
27140196,4,4,5
27156836,4,0,5
27173476,1,4,5
27190116,1,4,5
27206752,0,0,5
27223400,0,4,5
27240032,0,1,5
27256668,0,1,5
27273316,0,0,5
27289952,0,0,5
27306596,1,0,5
27323240,0,4,5
27339876,0,9,5
27356516,0,1,5
27373156,0,25,5
27390836,1,81,5
27408528,1,9,5
27425152,0,0,5
27441788,0,1,5
27458436,1,1,5
27475072,1,0,5
27491720,0,4,5
27508356,0,4,5
27524996,0,4,5
27541644,0,0,5
27558280,0,1,5
27574908,0,1,5
27591540,1,0,5
27608196,1,9,5
27624836,0,1,5
27641468,0,0,5
27658116,1,0,5
27674756,0,1,5
27691396,0,0,5
27708032,0,1,5
27724676,1,9,5
27741320,0,4,5
27757956,0,0,5
27774592,0,1,5
27791232,0,1,5
27807876,4,0,5
27824516,0,0,5
27841144,4,0,5
27857784,9,0,5
27874440,1,0,5
27891088,1,1,5
27907720,9,4,5
27924360,4,0,5
27940996,0,1,5
27957640,0,1,5
27974272,0,0,5
27990912,0,4,5
28007556,0,4,5
28024196,1,4,5
28040828,0,49,5
28058516,1,169,5
28077232,4,25,5
28094920,1,1,5
28111560,1,16,5
28129220,0,81,5
28146916,0,36,5
28164592,1,64,5
28182276,0,81,5
28199952,0,16,5
28217632,0,100,5
28236344,25,36,5
28255072,36,256,5
28274828,25,784,5
28294584,196,1296,5
28316432,64,196,5
28336200,9,64,5
28353880,100,144,5
28374664,484,144,5
28395460,36,0,5
28413164,144,0,5
28431868,225,9,5
28450596,25,1,5
28468276,0,0,5
28484912,0,9,5
28501548,4,64,5
28519236,0,81,5
28536932,16,4,5
28554596,0,1,5
28571236,1,1,5
28587868,25,121,5
28607644,16,441,5
28627392,4,225,5
28646116,49,169,5
28665880,100,36,5
28685640,36,16,5
28704352,0,49,5
28722040,36,121,5
28741804,25,1,5
28759472,9,100,5
28778196,9,36,5
28795876,1,49,5
28813568,1,9,5
28830192,16,1,5
28847876,1,4,5
28864504,144,36,5
28884276,36,121,5
28904024,0,225,5
28922756,9,144,5
28941472,25,100,5
28961232,25,1,5
28978916,1,16,5
28996596,121,196,5
29017392,256,256,5
29038188,64,0,5
29055864,4,0,5
29072512,16,4,5
29090204,36,64,5
29108920,49,0,5
29126580,100,16,5
29146364,9,16,5
29164040,9,36,5
29181712,0,16,5
29199404,9,4,5
29216044,1,4,5
29232676,0,9,5
29249308,1,0,5
29265968,1,9,5
29282596,9,4,5
29299236,9,1,5
29315872,0,1,5
29332528,1,36,5
29350208,25,49,5
29368908,81,144,5
29388676,49,225,5
29408436,36,81,5
29427160,9,4,5
29443796,0,0,5
29460424,0,0,5
29477080,0,49,5
29494752,9,225,5
29513464,16,49,5
29532196,9,16,5
29549884,1,16,5
29567556,4,0,5
29584196,1,1,5
29600836,4,16,5
29618516,0,100,5
29637240,9,0,5
29653884,1,144,5
29672604,4,1,5
29689248,4,36,5
29706916,9,0,5
29723548,0,36,5
29741232,4,64,5
29758920,4,1,5
29775548,4,25,5
29793228,0,100,5
29811956,0,9,5
29828588,0,4,5
29845228,4,9,5
29861864,9,1,5
29878520,4,4,5
29895152,0,16,5
29912828,0,9,5
29929484,1,1,5
29946124,4,0,5
29962744,4,4,5
29979392,1,16,5
29997076,1,1,5
30013712,0,0,5
30030356,0,4,5
30046984,1,0,5
30063636,0,1,3
30080280,0,1,3
30096924,1,1,3
30113548,1,0,3
30130196,0,0,3
30146836,0,9,3
30163472,0,9,3
30180120,0,1,3
30196752,4,64,3
30214432,25,144,3
30234196,25,4,3
30251876,9,0,3
30268532,0,1,3
30285160,0,64,3
30302824,1,361,3
30321556,16,196,3
30341316,169,25,3
30361080,36,0,3
30378756,1,16,3
30396440,0,16,3
30414128,1,1,3
30430756,0,1,3
30447400,1,1,3
30464040,0,1,3
30480680,1,16,3
30498364,1,9,3
30514996,0,0,3
30531644,1,0,3
30548284,0,4,3
30564904,25,16,3
30583628,36,16,3
30602356,16,1,3
30620048,1,144,3
30638756,9,144,3
30657468,81,9,3
30675152,36,0,3
30692836,4,1,3
30709476,9,0,3
30726108,0,0,3
30742764,25,9,3
30760424,64,25,3
30779148,25,9,3
30796832,1,0,3
30813476,4,0,3
30830124,9,1,3
30846756,9,4,3
30863404,1,36,3
30881076,0,25,3
30898760,25,9,3
30916436,49,0,3
30934116,4,1,3
30950760,400,0,3
30969476,529,0,3
30988192,0,4,3
31004836,64,16,3
31023552,2116,36,3
31044356,1089,169,3
31066204,16,4,3
31083884,121,4,3
31102600,1,1,3
31119236,169,16,3
31138996,36,16,3
31157716,361,1,3
31176432,9,9,3
31193080,25,1,3
31210760,144,0,3
31229484,4,0,3
31246112,64,9,3
31263800,0,4,3
31280444,36,4,3
31298112,36,0,3
31315796,1,9,3
31332452,25,9,3
31350116,81,9,3
31367788,16,1,3
31385468,4,4,3
31402116,25,0,3
31419792,225,0,3
31438516,25,1,3
31456192,9,0,3
31472844,1,16,3
31490516,1,49,3
31508196,16,0,3
31525872,81,9,3
31543560,64,16,3
31562284,0,4,3
31578916,36,16,3
31597632,0,36,3
31615320,0,0,3
31631964,16,4,3
31649636,9,0,3
31666280,49,16,3
31684996,36,9,3
31702680,1,1,3
31719312,4,64,3
31736988,169,0,3
31755708,676,100,3
31776512,81,64,3
31795240,16,0,3
31812920,25,4,3
31830608,16,1,3
31848280,36,4,3
31865972,0,1,3
31882592,1,1,3
31899228,9,9,3
31915872,0,1,3
31932524,16,0,3
31950196,81,16,3
31968908,16,25,3
31987636,16,9,3
32005328,25,0,3
32023000,4,1,3
32039632,36,0,3
32057308,9,4,3
32073964,25,16,3
32092680,9,9,3
32109324,64,25,3
32128052,0,9,3
32144680,0,4,3
32161312,36,16,3
32180024,64,9,3
32197724,4,9,3
32214372,64,1,3
32232028,100,25,3
32251796,1,16,3
32269472,1,4,3
32286120,49,1,3
32303788,25,0,3
32321476,4,1,3
32338124,1,16,3
32355796,64,1,3
32373484,4,1,3
32390116,4,0,3
32406764,81,64,3
32425472,289,169,3
32446272,256,36,3
32466036,256,9,3
32484760,16,25,3
32503476,49,4,3
32521156,4,1,3
32537796,144,16,3
32557560,9,49,3
32575236,324,4,3
32593960,484,9,3
32612680,49,0,3
32630364,25,1,3
32648032,16,64,3
32666764,196,196,3
32687556,121,9,3
32706276,49,1,3
32723940,196,4,3
32742680,64,36,3
32761392,289,36,3
32781164,81,100,3
32800920,36,4,3
32818592,36,16,3
32837312,25,4,3
32854988,1,1,3
32871644,64,36,3
32890356,16,0,3
32908044,4,1,3
32924680,0,0,3
32941316,25,1,3
32959000,36,4,3
32976672,25,16,3
32995400,400,9,3
33014124,441,49,3
33033876,100,36,3
33053632,4,0,3
33070288,9,9,3
33086920,25,1,3
33104596,169,0,3
33123312,256,25,3
33143072,100,16,3
33162832,1,0,3
33179484,121,25,3
33199240,121,25,3
33218996,64,4,3
33236664,225,9,3
33255392,36,9,3
33273072,81,0,3
33290756,4,4,3
33307396,16,9,3
33325088,0,9,3
33341712,81,0,3
33359396,144,4,3
33378108,16,16,3
33396840,0,4,3
33413476,0,1,3
33430116,4,4,3
33446764,81,9,3
33464436,36,4,3
33482112,0,0,3
33498756,16,1,3
33516432,4,0,3
33533080,4,16,3
33550760,49,0,3
33568432,121,4,3
33587144,0,0,3
33603804,0,1,3
33620432,256,0,3
33639160,324,9,3
33657884,1,0,3
33674516,121,49,3
33694280,9,9,3
33710912,256,0,3
33729636,400,1,3
33748352,4,9,3
33764988,9,1,3
33781628,64,16,3
33800356,144,0,3
33819076,36,25,3
33837792,49,0,3
33855464,121,1,3
33874196,4,9,3
33890848,64,0,3
33908512,25,9,3
33926196,100,0,3
33944920,144,16,3
33964672,1,25,3
33982348,100,0,3
34001080,49,4,3
34018756,25,4,3
34036420,49,0,3
34054100,9,25,3
34071804,25,4,3
34089472,144,0,3
34108200,225,0,3
34126920,225,0,3
34145640,49,9,3
34163320,4,4,3
34179956,121,1,3
34198676,81,1,3
34216360,9,9,3
34232996,100,4,3
34251708,100,9,3
34270436,0,4,3
34287080,4,1,3
34303708,16,1,3
34321400,4,1,3
34338032,1,0,3
34354668,16,1,3
34372344,36,0,3
34390036,81,9,3
34407724,196,1,3
34426440,225,0,3
34445144,900,49,3
34464916,256,1,3
34483648,4,36,3
34501312,196,4,3
34520024,784,4,3
34538756,121,16,3
34558512,16,9,3
34576200,36,0,3
34593876,9,1,3
34610528,0,4,3
34627160,100,1,3
34645876,4,0,3
34662516,36,4,3
34680208,1,1,3
34696832,121,25,3
34716580,144,25,3
34736352,16,4,3
34754036,16,9,3
34771720,16,1,3
34789412,16,1,3
34807096,36,1,3
34824756,144,16,3
34844512,16,25,3
34863236,9,1,3
34879880,64,0,3
34897552,441,25,3
34917308,16,9,3
34935008,16,9,3
34952676,16,9,3
34970348,225,4,3
34989092,64,1,3
35006756,1,1,3
35023396,144,9,3
35042120,225,4,3
35060836,81,36,3
35079568,100,16,3
35099316,0,36,3
35116988,64,0,3
35134676,81,25,3
35153396,9,1,3
35170040,4,4,3
35186668,49,0,3
35204364,100,1,3
35223084,64,4,3
35240756,289,0,3
35259476,121,0,3
35278192,841,64,3
35297944,324,36,3
35317716,1,4,3
35334364,144,9,3
35353072,16,16,3
35371796,25,16,3
35390524,25,1,3
35408196,256,0,3
35426924,100,49,3
35446672,4,25,3
35464368,36,4,3
35482024,25,0,3
35499708,64,36,3
35518432,1,4,3
35535080,49,0,3
35552752,49,0,3
35570432,81,1,3
35588128,36,4,3
35605800,49,9,3
35623460,784,9,3
35642192,841,25,3
35661960,196,4,3
35680676,16,36,3
35699400,1,9,3
35716032,324,9,3
35734764,676,4,3
35753476,36,1,3
35771156,9,16,3
35788840,9,0,3
35805488,49,1,3
35823148,36,1,3
35840840,16,4,3
35858520,0,0,3
35875152,4,16,3
35892836,16,4,3
35910512,36,0,3
35928200,1,0,3
35944832,4,25,3
35962512,0,9,3
35979160,9,25,3
35996836,36,36,3
36015560,1,4,3
36032192,100,4,3
36050912,121,16,3
36070680,1,0,3
36087324,9,0,3
36103944,0,1,3
36120592,16,9,3
36138280,0,1,3
36154924,324,1,3
36173624,324,9,3
36192364,1,0,3
36209004,1,1,3
36225632,16,0,3
36243320,36,0,3
36261012,1,0,3
36277644,81,0,3
36295320,0,1,3
36311960,49,1,3
36329644,49,0,3
36347316,196,4,3
36366040,25,16,3
36384744,16,0,3
36402440,9,0,3
36419072,121,0,3
36437800,16,0,3
36455476,81,0,3
36473156,100,1,3
36491888,100,1,3
36510604,121,9,3
36529324,0,1,3
36545964,9,4,3
36562600,9,1,3
36579232,64,9,3
36596920,1,9,3
36613560,4,0,3
36630188,25,1,3
36647872,64,9,3
36665560,0,0,3
36682200,36,4,3
36699876,25,0,3
36717556,1,4,3
36734204,25,4,3
36751868,36,1,3
36769552,9,1,3
36786204,1,1,3
36802848,4,1,3
36819492,16,0,3
36837152,49,25,3
36855888,1,36,3
36873564,0,4,3
36890192,1,0,3
36906840,0,0,3
36923484,25,4,3
36941168,100,4,3
36959876,4,0,3
36976516,36,0,3
36994208,4,0,3
37010836,64,4,3
37028508,121,0,3
37047228,36,4,3
37064916,144,25,3
37084676,1,0,3
37101316,0,9,3
37117948,0,0,3
37134604,9,4,3
37151228,100,0,3
37169952,25,16,3
37188684,9,4,3
37205328,1,9,3
37221964,4,16,3
37239628,0,9,3
37256276,25,0,3
37273956,256,4,3
37292672,144,1,3
37311400,144,4,3
37330124,256,25,3
37349876,4,1,3
37366516,36,4,3
37384200,36,1,3
37401884,36,0,3
37419568,16,4,3
37437236,16,1,3
37454916,1,4,3
37471560,144,4,3
37490272,121,16,3
37510040,100,1,3
37528756,25,9,3
37546436,25,4,3
37564116,4,0,3
37580748,4,1,3
37597404,9,1,3
37614032,1,0,3
37630664,1,16,3
37648340,16,1,3
37666048,0,1,3
37682672,0,25,3
37700352,81,9,3
37718044,225,9,3
37736756,16,9,3
37754440,81,49,3
37773160,121,16,3
37792912,4,9,3
37809552,0,1,3
37826192,36,0,3
37843868,25,4,3
37861568,1,1,3
37878204,64,25,3
37896912,324,1,3
37915620,144,4,3
37934360,25,36,3
37953080,81,36,3
37971792,144,1,3
37990520,4,9,3
38007164,9,4,3
38023796,81,9,3
38041476,25,1,3
38059160,4,4,3
38075804,64,1,3
38093476,196,1,3
38112188,64,16,3
38130912,81,9,3
38148596,225,4,3
38167316,25,1,3
38185000,49,0,3
38202676,225,4,3
38221396,121,0,3
38240112,4,0,3
38256780,1,1,3
38273400,100,9,3
38292128,289,100,3
38312916,4,64,3
38330600,256,4,3
38349312,144,16,3
38369072,25,0,3
38386764,100,25,3
38406512,324,64,3
38426280,144,81,3
38446036,4,16,3
38463716,81,4,3
38481396,1,0,3
38498032,9,4,3
38514676,36,16,3
38533404,100,0,3
38552116,64,0,3
38569800,169,0,3
38588516,529,1,3
38607236,400,9,3
38625956,81,9,3
38643624,25,1,3
38661320,4,1,3
38677952,256,4,3
38696672,400,1,3
38715400,4,0,3
38732044,484,16,3
38751788,144,4,3
38770508,256,0,3
38789240,961,25,3
38808996,144,49,3
38828752,1,0,3
38845376,4,9,3
38862032,0,0,3
38878676,49,9,3
38896360,36,4,3
38914036,0,1,3
38930676,16,0,3
38948356,225,0,3
38967076,400,4,3
38985792,0,0,3
39002432,169,100,3
39023236,36,225,3
39042984,16,16,3
39061720,169,4,3
39080436,25,9,3
39098116,16,1,3
39115800,100,1,3
39134524,4,1,3
39151148,36,16,3
39169868,289,25,3
39189644,169,9,3
39208364,144,1,3
39227076,169,81,3
39246836,36,36,3
39265556,529,4,3
39284272,961,121,3
39305072,324,121,3
39325884,4,25,3
39343552,289,25,3
39363316,225,1,3
39382036,169,9,3
39400764,900,16,3
39420516,400,1,3
39439236,324,25,3
39458992,441,0,3
39477720,484,4,3
39496428,100,0,3
39515160,9,4,3
39531808,169,9,3
39550516,100,16,3
39570272,81,4,3
39587952,361,25,3
39607724,121,25,3
39627480,25,1,3
39645152,81,9,3
39662840,36,49,3
39681560,16,16,3
39700264,121,0,3
39719004,81,4,3
39736684,225,0,3
39755388,324,25,3
39775152,1,4,3
39791808,1,0,3
39808440,100,4,3
39827156,16,1,3
39844820,9,25,3
39862516,100,4,3
39881244,25,1,3
39898916,1,9,3
39915568,4,1,3
39932192,36,0,3
39949884,36,4,3
39967560,49,0,3
39985232,36,0,3
40002912,0,0,3
40019552,9,0,3
40036196,16,9,3
40053888,144,4,4
40072592,196,0,4
40091328,16,4,4
40108992,16,16,4
40127712,0,4,4
40144344,0,0,4
40160992,144,49,4
40180756,676,16,4
40200516,196,4,4
40219232,0,9,4
40235876,9,64,4
40253564,0,4,4
40270200,0,0,4
40286824,81,9,4
40304516,4,1,4
40321164,16,1,4
40338840,144,1,4
40357556,400,4,4
40376272,144,25,4
40396048,64,0,4
40413724,100,9,4
40432436,64,4,4
40450112,36,9,4
40467796,49,0,4
40485472,324,0,4
40504188,169,4,4
40522912,25,4,4
40540596,16,9,4
40558276,36,25,4
40576980,0,16,4
40594684,64,4,4
40612360,625,1,4
40631072,676,36,4
40650844,81,9,4
40668520,0,0,4
40685152,25,9,4
40702832,81,25,4
40721572,0,81,4
40739240,196,0,4
40757948,324,9,4
40776664,324,9,4
40795400,361,25,4
40815152,100,9,4
40833884,1,0,4
40850528,196,1,4
40869248,121,1,4
40887948,256,0,4
40906668,484,64,4
40926440,1,25,4
40944116,144,1,4
40962832,144,1,4
40981564,4,9,4
40998204,36,9,4
41015872,361,0,4
41034596,169,0,4
41053316,4,0,4
41069956,1,16,4
41087628,9,16,4
41105312,100,25,4
41125076,361,1,4
41143796,196,4,4
41162516,4,1,4
41179164,0,4,4
41195800,9,9,4
41212444,16,0,4
41230116,9,9,4
41246760,16,1,4
41264432,9,9,4
41281072,25,1,4
41298756,169,1,4
41317480,25,1,4
41335160,324,0,4
41353880,36,0,4
41371556,0,0,4
41388204,4,0,4
41404848,1,1,4
41421472,4,0,4
41438104,1,0,4
41454760,1,0,4
41471396,0,16,4
41489080,0,9,4
41505716,0,16,4
41523396,9,9,4
41540028,4,25,4
41557724,1,16,4
41575396,4,0,4
41592044,9,0,4
41608676,49,1,4
41626348,49,0,4
41644040,4,4,4
41660676,25,0,4
41678360,25,9,4
41696032,1,9,4
41712676,0,9,4
41729312,0,4,4
41745960,9,16,4
41763632,4,4,4
41780272,4,0,4
41796924,1,0,4
41813564,9,64,4
41831236,1,100,4
41849956,4,9,4
41866596,0,1,4
41883244,1,1,4
41899880,1,25,4
41917556,0,9,4
41934208,9,25,4
41951872,9,100,4
41970588,0,121,4
41989332,9,1,4
42005956,4,25,4
42023636,1,9,4
42040272,25,0,4
42057964,9,100,4
42076676,9,121,4
42095396,36,144,4
42115156,25,64,4
42133872,25,64,4
42152588,4,81,4
42170272,0,25,4
42187960,0,0,4
42204592,25,9,4
42222268,81,64,4
42240984,25,4,4
42258688,1,4,4
42275304,0,36,4
42292988,0,25,4
42310676,0,9,4
42327324,1,1,4
42343964,16,49,4
42362672,16,64,4
42381400,1,25,4
42399080,16,1,4
42416764,0,144,4
42435472,1,64,4
42453160,1,4,4
42469800,4,1,4
42486424,16,25,4
42505148,49,169,4
42524920,256,49,4
42544684,64,49,4
42563396,0,49,4
42581084,4,361,4
42599788,36,144,4
42619548,16,16,4
42638268,0,49,4
42655952,0,25,4
42673628,64,81,4
42692348,225,225,4
42713156,121,16,4
42732924,9,25,4
42750584,25,676,4
42770340,64,1089,4
42791156,121,81,4
42810936,64,4,4
42828600,0,169,4
42847328,9,169,4
42866032,25,121,4
42885796,16,1,4
42903472,4,121,4
42922208,16,4,4
42939872,36,361,4
42959640,9,625,4
42978356,4,256,4
42997084,25,169,4
43016840,1,81,4
43034516,49,36,4
43053236,36,100,4
43072992,4,25,4
43090668,0,1,4
43107308,1,121,4
43126044,16,324,4
43145788,36,196,4
43165552,49,100,4
43185312,64,576,4
43205072,121,1089,4
43226900,64,121,4
43246680,9,4,4
43263316,4,25,4
43281000,144,144,4
43301788,196,25,4
43321564,9,9,4
43338192,1,25,4
43355876,4,100,4
43374584,36,64,4
43393320,49,49,4
43412024,64,900,4
43431788,196,1849,4
43453640,144,64,4
43473388,36,100,4
43493156,1,81,4
43510844,9,225,4
43529560,64,441,4
43549300,196,1369,4
43571144,169,1849,4
43592984,121,900,4
43613792,169,256,4
43634592,81,0,4
43652284,9,36,4
43669948,9,1,4
43686600,256,324,4
43707384,484,289,4
43728200,25,36,4
43746920,4,16,4
43764600,16,16,4
43783320,1,16,4
43801012,1,9,4
43817636,144,4,4
43836340,400,25,4
43856116,81,100,4
43875888,4,144,4
43894588,16,49,4
43913316,1,16,4
43930996,0,36,4
43948672,1,0,4
43965312,0,25,4
43983004,16,36,4
44001712,16,9,4
44019396,4,0,4
44036024,25,144,4
44055812,9,1,4
44072432,9,441,4
44091160,4,64,4
44108848,36,36,4
44127560,64,100,4
44147312,64,36,4
44166028,49,9,4
44183716,1,9,4
44200356,0,121,4
44219076,0,64,4
44236744,4,4,4
44253408,1,25,4
44271068,49,121,4
44290836,16,225,4
44310596,16,49,4
44329328,36,1,4
44347000,1,9,4
44363624,36,121,4
44383396,16,100,4
44403160,0,1,4
44419804,9,49,4
44437468,9,81,4
44455156,4,324,4
44473888,4,100,4
44492588,36,9,4
44510292,9,36,4
44527960,36,25,4
44546664,25,64,4
44565396,25,729,4
44585164,100,900,4
44605944,81,4,4
44623632,16,16,4
44642352,0,400,4
44661072,4,1681,4
44680820,169,1225,4
44702676,400,529,4
44723480,64,1,4
44741164,9,169,4
44759868,25,0,4
44777560,16,256,4
44797316,36,81,4
44816048,16,9,4
44833712,4,16,4
44851400,0,4,4
44868032,16,36,4
44886756,9,81,4
44904424,16,64,4
44923168,49,36,4
44941868,25,16,4
44960588,16,4,4
44978276,64,196,4
44998044,64,361,4
45017792,16,36,4
45036516,4,9,4
45053152,0,0,4
45069792,0,9,4
45086428,0,4,4
45103064,0,9,4
45119728,0,121,4
45138436,1,49,4
45156104,0,49,4
45173796,4,1,4
45190440,4,196,4
45209160,1,1,4
45225804,1,100,4
45244532,4,1,4
45261160,0,36,4
45278832,9,25,4
45296516,9,0,4
45313156,25,9,4
45330844,36,100,4
45350604,9,1,4
45367236,4,36,4
45384924,0,4,4
45401556,0,1,4
45418196,1,169,4
45436916,25,484,4
45456672,100,361,4
45477476,16,36,4
45496208,16,256,4
45515952,49,1024,4
45536756,100,841,4
45557552,100,64,4
45577316,16,4,4
45595004,0,9,4
45611628,1,49,4
45629316,16,169,4
45649076,64,49,4
45667792,36,36,4
45686508,64,64,4
45705248,64,36,4
45723956,16,4,4
45741628,0,4,4
45758268,4,9,4
45774920,25,144,4
45794676,0,9,4
45811316,0,1,4
45827952,9,0,4
45844600,0,16,4
45862276,4,25,4
45879948,1,1,4
45896600,0,0,4
45913252,4,9,4
45929888,16,9,4
45947552,0,4,4
45964180,9,16,4
45981880,1,9,4
45998524,0,16,4
46016196,4,324,4
46034912,25,441,4
46054676,25,64,4
46073396,9,0,4
46090036,1,4,4
46106676,9,0,4
46123324,4,9,4
46139964,4,1,4
46156592,0,9,4
46173244,9,1,4
46189888,64,9,4
46207548,16,0,4
46225232,0,36,4
46242916,1,36,4
46260600,1,36,4
46278280,0,9,4
46294916,0,1,4
46311560,0,1,4
46328200,1,0,4
46344836,1,4,4
46361464,25,16,4
46380208,16,144,4
46399956,16,256,4
46419720,4,16,4
46437400,0,1,4
46454040,0,4,4
46470692,1,0,4
46487320,4,1,4
46503956,9,49,4
46521644,16,196,4
46541396,9,81,4
46559072,9,400,4
46577792,0,1849,4
46597552,49,361,4
46617312,36,9,4
46634984,4,1,4
46651632,0,0,4
46668284,4,16,4
46685960,4,169,4
46704672,9,64,4
46722352,0,0,4
46738988,0,4,4
46755632,16,25,4
46774356,64,36,4
46793084,9,64,4
46810760,1,49,4
46828440,4,0,4
46845076,0,0,4
46861716,25,169,4
46881476,49,676,4
46901224,169,324,4
46922036,144,25,4
46941792,9,25,4
46959472,0,81,4
46977164,25,49,4
46995876,100,81,4
47015636,25,4,4
47033320,121,100,4
47054112,361,196,4
47074916,169,100,4
47095712,81,64,4
47114448,25,64,4
47133152,1,81,4
47150836,4,16,4
47168508,1,144,4
47187240,1,49,4
47204928,4,169,4
47223636,9,100,4
47242368,9,0,4
47259004,1,25,4
47276676,16,81,4
47295388,16,16,4
47314120,4,9,4
47330756,4,49,4
47348436,25,64,4
47367140,36,25,4
47385880,0,81,4
47403564,16,196,4
47423312,4,64,4
47441000,0,361,4
47459716,4,256,4
47478436,16,4,4
47496112,1,25,4
47513796,36,100,4
47533548,49,64,4
47552276,25,1,4
47569964,0,0,4
47586592,1,169,4
47605312,1,529,4
47624036,25,16,4
47642760,0,36,4
47660436,25,0,4
47678124,0,49,4
47695788,1,324,4
47714516,0,441,4
47733236,9,144,4
47751960,25,64,4
47770684,25,121,4
47790436,49,4,4
47808104,16,16,4
47826832,1,25,4
47844516,0,36,4
47862200,9,49,4
47879864,25,1369,4
47900664,100,1156,4
47922524,121,25,4
47942272,49,1764,4
47963068,576,1936,4
47984920,196,64,4
48004676,1,121,4
48023388,1,9,4
48040032,0,169,4
48058768,0,4,4
48075396,0,1,4
48092040,9,0,4
48108684,4,49,4
48126364,0,81,4
48144028,16,144,4
48163792,49,121,4
48183568,16,1,4
48201244,4,169,4
48219956,36,289,4
48239716,16,4,4
48257396,0,9,4
48274024,4,289,4
48292748,16,961,4
48312512,36,4,4
48330192,4,676,4
48348904,100,144,4
48369720,64,1,4
48387400,4,9,4
48404028,0,121,4
48422752,0,289,4
48441472,36,36,4
48460204,16,289,4
48479956,16,144,4
48499704,16,4,4
48517396,9,9,4
48534044,1,0,4
48550672,0,1,4
48567332,36,81,4
48586044,16,169,4
48605800,16,4,4
48623468,25,1,4
48641156,0,9,4
48657792,9,36,4
48675468,9,0,4
48692120,9,4,4
48708768,1,1,4
48725396,0,9,4
48742024,36,121,4
48761792,81,484,4
48781556,64,121,4
48801324,25,25,4
48820036,0,1,4
48836672,4,25,4
48854368,9,36,4
48872028,9,16,4
48889720,16,0,4
48907400,16,1,4
48925080,9,1,4
48941716,9,16,4
48959388,4,36,4
48977080,25,1,4
48994756,49,36,4
49013472,9,289,4
49032180,9,81,4
49049884,4,1024,4
49069628,25,289,4
49089404,100,100,4
49110212,16,36,4
49128912,16,1,4
49146596,1,4,4
49163224,9,1,4
49179884,16,0,4
49197564,25,4,4
49215240,1,49,4
49232916,0,121,4
49251636,36,9,4
49269324,49,4,4
49287000,1,64,4
49304676,9,100,4
49323400,1,4,4
49340028,9,4,4
49356672,0,1,4
49373316,1,1,4
49389956,4,1,4
49406592,0,0,4
49423236,4,0,4
49439880,0,1,4
49456512,0,25,4
49474184,0,81,4
49491868,1,0,4
49508516,16,64,4
49527240,16,36,4
49545960,1,16,4
49563628,0,1,4
49580268,4,289,4
49598996,4,729,4
49617712,16,16,4
49636444,16,9,4
49654128,0,9,4
49670760,9,16,4
49688432,25,9,4
49706124,0,9,4
49722772,0,4,4
49739400,4,0,4
49756028,0,4,4
49772676,4,0,4
49789316,9,25,4
49806992,4,64,4
49824672,1,81,4
49842352,36,0,4
49860036,9,121,4
49878760,25,169,4
49898516,25,9,4
49916200,1,256,4
49934912,16,49,4
49953640,16,1,4
49971320,4,0,4
49987968,9,0,4
50004584,0,0,4
50021232,16,1,4
50038912,4,121,4
50057632,64,400,6
50077400,81,0,6
50095064,16,25,6
50113804,1,1,6
50130440,16,25,6
50149160,1,25,6
50166840,25,1,6
50184528,1,4,6
50201152,4,196,6
50219864,0,900,6
50238604,36,121,6
50258352,49,0,6
50276044,1,1,6
50292660,4,36,6
50310348,81,196,6
50330120,64,1444,6
50350908,49,441,6
50370688,64,4,6
50388356,4,25,6
50406040,9,4,6
50422672,0,36,6
50440352,4,4,6
50456992,9,225,6
50475716,81,784,6
50495460,49,25,6
50514208,1,49,6
50531888,1,9,6
50548512,16,81,6
50567232,9,625,6
50585948,36,256,6
50605712,25,25,6
50624432,1,4,6
50641072,49,16,6
50659792,9,25,6
50677468,36,25,6
50696184,25,36,6
50714920,0,36,6
50732592,0,25,6
50750280,1,16,6
50767960,16,0,6
50785636,64,484,6
50805392,100,529,6
50826192,81,25,6
50844924,16,16,6
50863644,0,36,6
50881320,64,36,6
50900032,100,1,6
50918768,16,4,6
50936444,4,9,6
50953064,16,196,6
50972832,81,676,6
50992596,9,1,6
51009228,100,625,6
51030048,400,784,6
51050832,529,529,6
51071636,441,225,6
51092432,225,16,6
51112208,64,9,6
51129888,64,144,6
51149628,324,324,6
51170436,144,196,6
51191232,0,361,6
51209940,196,169,6
51230764,81,36,6
51249484,0,225,6
51268188,0,49,6
51285868,0,144,6
51304612,9,225,6
51323316,64,16,6
51342040,4,0,6
51358656,1,324,6
51377400,1,625,6
51396112,144,841,6
51416912,324,400,6
51437712,169,64,6
51457476,16,81,6
51476196,0,9,6
51492824,9,64,6
51510524,9,4,6
51527152,1,9,6
51543800,9,1,6
51560432,1,0,6
51577084,1,1,6
51593720,9,9,6
51610360,16,36,6
51629088,36,9,6
51646760,1,16,6
51664428,121,64,6
51684192,1156,4,6
51703956,2500,144,6
51725784,2025,81,6
51746588,529,64,6
51766364,225,4,6
51785072,225,4,6
51803796,1,0,6
51820440,25,0,6
51838116,676,16,6
51857880,196,25,6
51877632,16,1,6
51895324,529,9,6
51914048,324,9,6
51932752,81,1,6
51950432,144,4,6
51969156,576,25,6
51988908,1600,81,6
52009712,784,64,6
52029480,81,1,6
52047160,16,4,6
52064836,4,64,6
52082504,16,64,6
52101240,0,1,6
52117884,169,9,6
52136588,729,64,6
52156344,324,121,6
52177160,25,16,6
52195864,121,4,6
52214576,5776,25,6
52235384,8836,289,6
52257220,4096,121,6
52279068,3600,1,6
52298844,1225,121,6
52320680,81,121,6
52340424,144,16,6
52360180,196,81,6
52379948,484,4,6
52398668,36,121,6
52418424,6561,81,6
52439228,5625,961,6
52461072,1296,36,6
52481856,2304,36,6
52502660,196,441,6
52523460,225,100,6
52544268,4900,9,6
52564032,10609,1225,6
52587940,13225,576,6
52610816,961,0,6
52629532,13689,441,6
52652436,36,361,6
52672184,64,0,6
52689864,676,49,6
52709636,1849,81,6
52730420,5476,100,6
52752272,7921,529,6
52774116,3481,225,6
52795960,25,1,6
52813632,1764,1,6
52833392,64,1,6
52851068,4356,1,6
52870820,5041,169,6
52892656,784,196,6
52913472,4096,1,6
52933232,8281,361,6
52955052,2025,169,6
52976908,400,64,6
52996656,1369,16,6
53017460,49,100,6
53037220,14884,169,6
53060108,2304,961,6
53081948,4096,100,6
53103780,361,225,6
53124588,729,324,6
53145380,25,0,6
53163068,5929,361,6
53184904,12769,121,6
53207788,441,36,6
53227552,1521,64,6
53248352,10000,484,6
53271212,4761,441,6
53293056,4900,361,6
53314900,9409,1024,6
53337784,8836,729,6
53359604,4225,225,6
53381460,5929,625,6
53403304,3844,729,6
53425140,625,1,6
53443864,9409,324,6
53465708,484,36,6
53485472,9025,121,6
53507320,3136,225,6
53529156,81,0,6
53546820,676,0,6
53565556,1849,9,6
53585312,961,64,6
53605064,9025,256,6
53626904,2704,324,6
53648756,529,4,6
53667468,5929,169,6
53689292,21025,1444,6
53713224,10816,729,6
53736112,3025,81,6
53756904,400,289,6
53777712,225,36,6
53797464,2209,4,6
53817208,5625,484,6
53839072,16641,961,6
53861936,9216,484,6
53883780,3600,169,6
53905624,2500,196,6
53927480,4,25,6
53945156,1156,225,6
53967008,64,25,6
53985720,324,4,6
54004428,961,100,6
54025232,4900,256,6
54047088,900,16,6
54066844,16,1,6
54084508,676,64,6
54104264,6084,81,6
54125056,11025,324,6
54147956,4356,676,6
54169808,9,9,6
54186420,11449,484,6
54209304,15376,729,6
54232204,169,100,6
54252988,1444,36,6
54273772,81,4,6
54291464,144,4,6
54310204,5929,324,6
54332020,7744,529,6
54353868,3721,144,6
54375716,8100,169,6
54397556,13924,729,6
54420424,6241,361,6
54442276,576,64,6
54462024,64,64,6
54480760,576,0,6
54499484,576,64,6
54519232,256,0,6
54537956,64,16,6
54556668,36,1,6
54574356,576,36,6
54594112,841,169,6
54614920,196,9,6
54633640,225,0,6
54652336,2500,121,6
54674188,7569,256,6
54696028,484,81,6
54715780,6889,64,6
54736592,7225,361,6
54758436,1296,64,6
54779240,196,16,6
54798996,16,9,6
54816656,400,0,6
54835380,1369,81,6
54856196,25,169,6
54875948,625,16,6
54895716,9,36,6
54913384,1936,0,6
54933152,12321,289,6
54956028,6084,625,6
54977876,324,0,6
54996584,11025,256,6
55019448,15129,529,6
55042348,4096,676,6
55064196,196,144,6
55084984,625,9,6
55103720,961,49,6
55123484,121,1,6
55142200,2025,49,6
55162992,2401,64,6
55183784,4900,256,6
55205632,5929,484,6
55227476,100,64,6
55247236,5776,169,6
55269076,1369,49,6
55289860,3249,49,6
55310676,12321,361,6
55333544,2916,289,6
55355380,1764,4,6
55375148,5041,36,6
55395940,2916,225,6
55417784,1764,81,6
55438584,4761,256,6
55460424,5776,676,6
55482264,49,169,6
55502040,1024,16,6
55522844,676,9,6
55541552,256,25,6
55561320,324,36,6
55581084,1225,64,6
55601868,1225,100,6
55623732,1849,16,6
55644516,2401,196,6
55666352,1764,361,6
55688180,441,64,6
55707968,100,4,6
55726680,9,16,6
55744336,2916,64,6
55765156,3844,361,6
55787008,0,9,6
55803612,3600,169,6
55825472,5041,144,6
55847320,1764,196,6
55869144,100,100,6
55889956,1369,49,6
55910764,2916,361,6
55932588,0,9,6
55949216,1521,121,6
55971076,784,49,6
55990832,36,64,6
56009552,49,49,6
56028288,441,9,6
56046984,121,16,6
56066744,1849,144,6
56088572,3136,256,6
56110440,2809,49,6
56131240,25,121,6
56150988,121,1,6
56169712,81,49,6
56188436,1369,16,6
56209224,2401,100,6
56231080,196,81,6
56250824,4096,121,6
56272672,1089,169,6
56294524,64,0,6
56312200,0,9,6
56328840,225,9,6
56347552,441,4,6
56366280,36,0,6
56383956,64,1,6
56401636,100,0,6
56420348,49,4,6
56438040,49,0,6
56455724,121,1,6
56474436,9,0,6
56491080,1,4,6
56507708,729,36,6
56527476,324,81,6
56547224,2809,16,6
56568024,7569,361,6
56589864,1225,196,6
56611724,225,1,6
56630440,961,0,6
56649144,1,0,6
56665780,1,16,6
56683452,2209,81,6
56704284,441,100,6
56725084,4,0,6
56741712,196,1,6
56760424,2601,49,6
56781224,5625,100,6
56803060,1521,81,6
56823876,625,0,6
56842596,3136,81,6
56863396,1849,100,6
56885232,256,16,6
56904996,225,4,6
56923708,64,4,6
56941384,676,16,6
56961152,121,81,6
56980916,576,1,6
56999648,484,9,6
57018340,400,16,6
57038104,2601,81,6
57058900,3600,324,6
57080752,324,81,6
57100524,36,25,6
57119240,16,81,6
57137944,64,0,6
57155628,196,81,6
57175400,121,25,6
57195156,4,64,6
57212832,64,16,6
57231572,4,1,6
57248188,1681,144,6
57270036,729,64,6
57289792,256,16,6
57309544,64,9,6
57327220,1600,49,6
57348008,1296,9,6
57367784,2025,16,6
57388580,361,144,6
57409384,64,4,6
57427076,25,4,6
57444756,81,25,6
57463472,3025,169,6
57485308,225,361,6
57506124,81,9,6
57523788,1764,0,6
57543540,14884,196,6
57566432,16641,576,6
57589300,1024,400,6
57611156,1024,1,6
57630924,2601,81,6
57651716,2209,100,6
57673548,1369,81,6
57694360,2116,64,6
57715152,196,36,6
57734904,10404,196,6
57757784,2116,441,6
57779624,1521,36,6
57800428,196,81,6
57820204,7225,400,6
57842040,1764,225,6
57863872,100,16,6
57883628,25,25,6
57902340,3136,144,6
57924184,7396,64,6
57944996,841,196,6
57965792,1369,1,6
57985548,4624,225,6
58007396,961,121,6
58028208,16,25,6
58046908,64,0,6
58064596,1225,1,6
58084360,25,100,6
58104108,81,1,6
58121804,1296,16,6
58142580,225,196,6
58163408,2116,64,6
58184192,225,121,6
58204996,400,36,6
58224744,3969,36,6
58245540,1296,81,6
58266348,4225,9,6
58286124,6400,289,6
58307944,2304,256,6
58329788,1681,196,6
58351632,144,196,6
58372440,81,0,6
58390116,49,4,6
58407788,256,36,6
58427556,625,144,6
58448348,289,81,6
58468108,144,64,6
58487876,576,16,6
58507636,1681,100,6
58529472,25,25,6
58548188,49,36,6
58566908,361,1,6
58585636,484,0,6
58604352,100,25,6
58624124,81,25,6
58642840,9,16,6
58660512,225,36,6
58680256,256,36,6
58700032,196,0,6
58718760,16,0,6
58736420,1369,49,6
58757220,2500,49,6
58778032,25,1,6
58795704,2116,49,6
58816504,169,25,6
58836268,7396,196,6
58858108,4489,441,6
58879940,81,49,6
58898680,169,0,6
58917388,361,9,6
58936108,4900,49,6
58956928,676,100,6
58977708,1444,25,6
58998508,49,196,6
59018276,3025,9,6
59038036,1225,64,6
59058832,49,16,6
59077556,0,1,6
59094204,16,9,6
59111876,64,36,6
59130600,576,25,6
59150364,484,0,6
59169076,841,25,6
59188832,1764,121,6
59210656,36,4,6
59228352,529,49,6
59248128,144,0,6
59266840,225,0,6
59285556,1681,121,6
59307384,1225,81,6
59328184,9,0,6
59344828,225,1,6
59363560,729,49,6
59383324,324,4,6
59402024,0,0,6
59418680,100,4,6
59437392,1369,4,6
59457148,0,9,6
59473796,1296,16,6
59494604,361,25,6
59514360,289,1,6
59533072,1369,64,6
59553876,2209,144,6
59575724,1156,81,6
59596508,36,36,6
59615224,576,16,6
59634992,0,16,6
59652668,144,1,6
59671392,576,4,6
59690112,784,25,6
59709856,3249,144,6
59731708,4900,441,6
59753548,2401,289,6
59775396,1225,81,6
59796188,49,100,6
59815956,25,0,6
59833640,64,0,6
59851316,1,0,6
59867960,49,1,6
59885644,4,4,6
59902276,81,1,6
59919956,2500,4,6
59939712,841,36,6
59959488,49,9,6
59977152,289,4,6
59995880,144,4,6
60014584,100,0,6
60033316,961,16,6
60053052,2601,100,6
60074908,3600,196,2
60096760,4,64,2
60114428,3025,64,2
60135236,900,81,2
60155008,144,25,2
60174760,256,1,2
60193464,361,16,2
60213224,144,25,2
60232984,625,4,2
60251708,1681,25,2
60272516,400,16,2
60292284,4,49,2
60309944,1600,64,2
60330740,961,64,2
60350512,4096,324,2
60372364,25,36,2
60391072,11236,729,2
60413928,26244,1225,2
60437872,6561,841,2
60459700,2401,256,2
60481556,1600,144,2
60503384,1444,4,2
60523152,6241,289,2
60544980,1089,64,2
60565800,400,1,2
60584512,841,9,2
60603236,1,25,2
60620916,1089,1,2
60640680,121,121,2
60661464,225,9,2
60680180,7056,49,2
60700984,5625,576,2
60722832,1,64,2
60740500,1521,64,2
60761304,12996,196,2
60784188,21609,1296,2
60808104,4624,1156,2
60831008,36,4,2
60848688,144,1,2
60867404,36,9,2
60885076,0,0,2
60901720,225,4,2
60920424,1024,100,2
60942280,400,9,2
60960988,169,81,2
60980756,2116,100,2
61002596,256,49,2
61022360,1,36,2
61040036,144,1,2
61058748,1600,81,2
61079544,676,49,2
61099300,4761,324,2
61121144,289,25,2
61140896,6889,400,2
61162752,1764,121,2
61184588,1,0,2
61201224,64,49,2
61219960,529,4,2
61238668,225,361,2
61259464,3844,49,2
61280292,7569,900,2
61302112,16,16,2
61320832,8649,81,2
61341632,1444,1,2
61361408,400,4,2
61380124,441,9,2
61398828,1681,100,2
61420668,2209,441,2
61442504,1296,9,2
61462268,256,9,2
61480996,324,49,2
61500748,529,81,2
61520516,49,49,2
61539240,0,121,2
61557956,400,0,2
61576668,324,100,2
61597476,225,36,2
61617236,4,49,2
61634920,1,25,2
61652600,49,0,2
61670280,64,16,2
61689004,256,36,2
61708752,900,49,2
61728504,256,4,2
61747244,81,4,2
61764924,49,4,2
61782592,49,4,2
61800276,144,16,2
61820040,49,9,2
61837720,1,0,2
61854348,361,1,2
61873064,3481,16,2
61893872,1225,121,2
61915720,361,1,2
61934424,729,81,2
61954204,100,25,2
61973952,9,36,2
61991624,144,25,2
62011400,0,1,2
62028040,0,4,2
62044676,64,1,2
62062364,16,4,2
62080056,1,4,2
62096680,64,4,2
62114360,9,1,2
62130992,16,0,2
62148684,4,1,2
62165328,49,1,2
62183000,169,4,2
62201712,4,0,2
62218372,4,0,2
62235000,25,4,2
62252684,1,9,2
62269316,1,0,2
62285956,36,4,2
62303640,0,0,2
62320272,16,36,2
62338992,16,16,2
62357716,36,36,2
62376436,0,16,2
62394116,9,0,2
62410760,9,1,2
62427400,4,0,2
62444036,16,1,2
62461716,4,9,2
62478364,25,0,2
62496048,4,0,2
62512684,9,1,2
62529316,4,1,2
62545964,9,0,2
62562608,4,1,2
62579248,1,1,2
62595884,16,1,2
62613556,0,0,2
62630196,0,0,2
62646832,1,0,2
62663468,4,0,2
62680120,0,16,2
62697800,4,16,2
62715480,9,9,2
62732116,0,0,2
62748764,1,16,2
62766444,0,0,2
62783076,64,4,2
62800760,1,16,2
62818436,36,4,2
62836120,1,4,2
62852752,1,4,2
62869396,0,1,2
62886040,16,16,2
62904756,1,16,2
62922432,0,9,2
62939076,4,36,2
62956756,1,16,2
62974444,1,4,2
62991072,1,0,2
63007712,16,9,2
63025404,0,9,2
63042040,4,4,2
63058688,16,9,2
63076364,4,1,2
63093004,25,4,2
63110676,16,4,2
63128356,0,0,2
63145000,4,0,2
63161640,4,1,2
63178280,9,9,2
63194920,0,1,2
63211556,81,1,2
63229244,144,1,2
63247952,36,0,2
63265632,4,0,2
63282284,0,1,2
63298924,4,4,2
63315560,16,9,2
63333232,0,1,2
63349876,9,1,2
63366524,16,1,2
63384204,1,1,2
63400832,4,0,2
63417480,0,9,2
63434132,4,0,2
63450760,4,0,2
63467396,0,4,2
63484040,16,0,2
63501716,0,4,2
63518356,0,4,2
63534996,4,0,2
63551636,0,0,2
63568284,1,1,2
63584908,0,4,2
63601556,1,1,2
63618200,81,1,2
63635880,100,1,2
63654592,9,1,2
63671220,0,0,2
63687884,1,1,2
63704516,0,9,2
63721152,36,1,2
63738832,49,4,2
63756524,4,0,2
63773160,4,1,2
63789796,9,1,2
63806428,36,9,2
63824124,0,1,2
63840752,25,0,2
63858432,49,4,2
63876124,4,1,2
63892772,4,0,2
63909404,0,4,2
63926036,1,4,2
63942684,4,4,2
63959320,0,0,2
63975976,9,4,2
63992600,0,0,2
64009240,4,1,2
64025884,0,9,2
64042520,16,0,2
64060188,4,0,2
64076840,25,1,2
64094516,0,0,2
64111144,0,1,2
64127796,9,4,2
64144452,25,1,2
64162116,0,0,2
64178760,1,0,2
64195404,1,1,2
64212048,4,0,2
64228672,0,0,2
64245320,16,16,2
64264032,0,4,2
64280676,4,1,2
64297324,4,1,2
64313964,0,0,2
64330600,1,9,2
64347236,1,0,2
64363888,9,1,2
64380504,25,0,2
64398200,1,0,2
64414836,4,4,2
64431472,1,0,2
64448104,9,0,2
64464756,81,0,2
64482436,25,1,2
64500120,9,1,2
64516756,16,4,2
64534436,0,0,2
64551088,1,0,2
64567728,16,1,2
64585400,16,9,2
64603076,4,0,2
64619724,9,0,2
64636352,0,9,2
64653008,4,1,2
64669632,9,0,2
64686276,0,4,2
64702916,9,0,2
64719552,9,0,2
64736188,36,1,2
64753884,9,0,2
64770524,1,0,2
64787156,36,9,2
64804832,16,9,2
64822524,1,0,2
64839156,16,0,2
64856836,25,4,2
64874532,4,1,2
64891160,9,4,2
64907804,9,0,2
64924436,0,16,2
64942116,49,1,2
64959800,4,1,2
64976428,0,0,2
64993072,0,4,2
65009724,16,1,2
65027396,9,4,2
65044024,49,0,2
65061716,9,4,2
65078364,9,0,2
65095004,1,1,2
65111644,25,1,2
65129320,9,0,2
65145956,49,4,2
65163648,49,9,2
65181316,0,0,2
65197952,0,0,2
65214596,4,0,2
65231236,1,4,2
65247876,9,0,2
65264512,1,4,2
65281156,1,1,2
65297796,0,1,2
65314424,1,0,2
65331080,1,1,2
65347724,9,0,2
65364356,4,4,2
65380996,0,0,2
65397636,9,4,2
65414276,1,4,2
65430920,4,1,2
65447544,0,0,2
65464192,4,0,2
65480848,4,4,2
65497472,16,0,2
65515148,25,4,2
65532824,1,0,2
65549484,9,1,2
65566124,25,16,2
65584832,0,49,2
65602512,36,1,2
65620208,16,1,2
65637876,0,0,2
65654508,1,0,2
65671144,0,4,2
65687792,1,0,2
65704436,0,1,2
65721076,36,4,2
65738748,16,0,2
65756444,4,0,2
65773080,1,4,2
65789724,4,4,2
65806356,0,1,2
65822992,1,0,2
65839648,49,1,2
65857320,25,4,2
65875008,9,0,2
65891648,16,1,2
65909316,0,4,2
65925948,0,1,2
65942596,0,1,2
65959236,1,0,2
65975872,9,0,2
65992524,9,0,2
66009164,1,0,2
66025804,1,1,2
66042432,4,9,2
66059076,4,0,2
66075716,1,0,2
66092364,0,4,2
66109000,1,0,2
66125632,16,1,2
66143324,9,16,2
66161004,0,0,2
66177636,4,1,2
66194268,0,4,2
66210924,0,0,2
66227560,9,0,2
66244196,0,1,2
66260824,0,9,2
66277472,4,0,2
66294116,1,0,2
66310756,0,4,2
66327400,0,9,2
66344036,4,4,2
66360688,9,4,2
66377304,9,0,2
66393960,9,0,2
66410604,0,1,2
66427240,0,0,2
66443872,1,1,2
66460504,0,9,2
66477164,4,1,2
66493800,4,0,2
66510432,16,4,2
66528108,0,0,2
66544764,4,1,2
66561404,1,4,2
66578044,4,0,2
66594676,9,0,2
66611332,9,1,2
66627968,1,0,2
66644604,49,1,2
66662276,16,16,2
66681000,0,0,2
66697644,1,1,2
66714276,4,1,2
66730916,0,9,2
66747556,25,0,2
66765228,0,0,2
66781872,0,0,2
66798504,1,0,2
66815156,4,1,2
66831800,9,1,2
66848432,25,0,2
66866112,16,1,2
66883792,0,0,2
66900428,4,1,2
66917076,0,1,2
66933700,9,0,2
66950360,16,1,2
66968036,0,1,2
66984668,0,4,2
67001304,0,1,2
67017964,1,4,2
67034596,1,1,2
67051228,0,4,2
67067872,0,0,2
67084528,9,1,2
67101156,1,0,2
67117796,1,4,2
67134432,36,0,2
67152120,81,9,2
67169796,1,0,2
67186440,9,0,2
67203068,36,1,2
67220752,9,0,2
67237408,0,1,2
67254036,36,4,2
67271728,1,4,2
67288356,9,16,2
67306028,1,9,2
67322676,4,9,2
67339328,9,16,2
67357004,1,0,2
67373640,4,0,2
67390272,0,4,2
67406916,4,0,2
67423556,0,1,2
67440196,0,1,2
67456836,16,0,2
67474524,4,1,2
67491164,4,1,2
67507800,0,1,2
67524432,36,0,2
67542116,25,1,2
67559796,16,4,2
67577472,9,9,2
67594112,1,0,2
67610760,0,0,2
67627400,16,4,2
67645076,9,0,2
67661716,4,1,2
67678368,4,25,2
67696036,0,4,2
67712676,9,4,2
67729312,9,9,2
67745956,1,0,2
67762600,4,1,2
67779240,1,1,2
67795872,1,4,2
67812524,9,0,2
67829152,4,0,2
67845792,0,1,2
67862432,4,0,2
67879084,4,0,2
67895720,36,16,2
67914424,4,16,2
67932100,9,4,2
67948764,0,4,2
67965404,36,1,2
67983072,4,0,2
67999700,0,1,2
68016376,1,1,2
68033000,16,0,2
68050680,0,0,2
68067316,9,0,2
68083972,4,9,2
68100592,9,0,2
68117236,4,1,2
68133872,1,1,2
68150512,1,0,2
68167160,1,4,2
68183792,9,1,2
68200424,0,1,2
68217076,0,0,2
68233712,1,0,2
68250344,9,0,2
68266988,4,1,2
68283648,4,0,2
68300264,81,9,2
68317952,25,16,2
68336680,0,0,2
68353332,0,0,2
68369968,9,1,2
68386592,0,9,2
68403240,16,0,2
68420920,4,1,2
68437552,4,0,2
68454196,9,4,2
68470836,0,0,2
68487480,0,1,2
68504120,4,1,2
68520748,0,9,2
68537396,0,1,2
68554036,0,4,2
68570668,16,0,2
68588364,16,1,2
68606052,4,0,2
68622680,4,0,2
68639312,4,1,2
68655948,25,9,2
68673636,4,1,2
68690288,1,4,2
68706924,1,1,2
68723560,9,0,2
68740196,1,1,2
68756832,1,0,2
68773468,0,1,2
68790116,16,9,2
68807800,1,9,2
68824456,0,1,2
68841080,16,0,2
68858756,0,0,2
68875412,4,0,2
68892044,9,9,2
68908680,4,0,2
68925316,49,25,2
68944040,1,1,2
68960676,0,1,2
68977312,1,4,2
68993948,16,25,2
69012676,16,25,2
69031396,16,1,2
69049072,0,9,2
69065708,9,4,2
69082356,1,0,2
69099000,4,0,2
69115636,0,1,2
69132268,16,9,2
69149964,4,9,2
69166584,1,0,2
69183236,9,4,2
69199880,0,1,2
69216516,9,1,2
69233152,16,9,2
69250840,0,1,2
69267476,0,0,2
69284120,9,4,2
69300764,0,0,2
69317392,1,0,2
69334032,25,9,2
69351712,9,0,2
69368364,16,0,2
69386036,9,0,2
69402680,0,1,2
69419332,1,4,2
69435960,36,1,2
69453636,25,1,2
69471324,9,1,2
69487960,4,0,2
69504600,1,9,2
69521240,1,1,2
69537884,4,1,2
69554524,9,4,2
69571152,16,0,2
69588836,0,0,2
69605484,1,1,2
69622120,9,0,2
69638756,1,0,2
69655392,4,1,2
69672032,1,4,2
69688668,16,0,2
69706360,9,1,2
69722992,0,0,2
69739640,0,1,2
69756280,4,0,2
69772912,64,9,2
69790596,100,4,2
69809312,36,0,2
69827000,1,9,2
69843636,36,9,2
69861312,1,0,2
69877952,16,0,2
69895632,1,0,2
69912276,1,1,2
69928912,0,0,2
69945560,0,0,2
69962208,1,1,2
69978840,1,0,2
69995468,4,0,2
70012124,25,4,2
70029796,4,0,2
70046432,0,0,2
70063068,0,4,1
70079728,25,0,1
70097396,0,1,1
70114032,4,0,1
70130668,1,0,1
70147328,25,0,1
70164992,64,4,1
70182676,9,1,1
70199328,4,0,1
70215960,1,1,1
70232604,0,4,1
70249244,4,0,1
70265884,9,0,1
70282520,4,4,1
70299160,4,1,1
70315796,1,4,1
70332436,9,0,1
70349084,4,4,1
70365728,4,1,1
70382360,1,4,1
70399000,4,0,1
70415648,9,4,1
70432292,25,16,1
70450996,4,9,1
70467648,16,16,1
70486364,4,9,1
70502992,0,0,1
70519640,1,0,1
70536284,1,1,1
70552912,4,4,1
70569556,1,0,1
70586196,25,1,1
70603884,0,4,1
70620516,25,1,1
70638192,0,0,1
70654836,4,1,1
70671484,9,9,1
70688116,16,1,1
70705792,4,1,1
70722432,0,0,1
70739076,0,4,1
70755724,9,4,1
70772348,16,1,1
70790032,1,0,1
70806684,9,1,1
70823320,0,1,1
70839964,1,9,1
70856592,4,1,1
70873232,0,0,1
70889896,9,4,1
70906520,1,1,1
70923160,1,4,1
70939804,0,0,1
70956436,1,0,1
70973076,4,1,1
70989716,9,16,1
71007404,0,0,1
71024048,1,0,1
71040680,4,16,1
71058352,1,1,1
71075000,4,1,1
71091632,0,4,1
71108260,0,0,1
71124900,9,0,1
71141556,9,0,1
71158196,1,0,1
71174836,16,1,1
71192512,4,1,1
71209172,1,1,1
71225792,1,0,1
71242436,0,1,1
71259080,1,4,1
71275728,25,4,1
71293404,4,0,1
71310044,1,1,1
71326668,1,0,1
71343320,4,1,1
71359952,25,1,1
71377632,16,4,1
71395312,16,1,1
71412992,0,0,1
71429628,4,9,1
71446276,4,4,1
71462920,4,4,1
71479560,64,9,1
71497240,25,0,1
71514916,9,0,1
71531552,0,0,1
71548192,9,0,1
71564836,0,1,1
71581472,0,1,1
71598124,9,0,1
71614772,0,1,1
71631400,0,1,1
71648028,0,4,1
71664676,9,1,1
71681332,0,1,1
71697968,9,4,1
71714600,1,1,1
71731236,16,0,1
71748916,36,0,1
71766592,25,0,1
71784276,1,0,1
71800924,0,0,1
71817560,1,9,1
71834196,16,0,1
71851876,1,4,1
71868520,1,9,1
71885160,25,1,1
71902832,9,0,1
71919472,4,16,1
71937172,1,1,1
71953808,4,0,1
71970436,1,4,1
71987072,0,0,1
72003716,16,0,1
72021400,36,4,1
72039080,1,1,1
72055712,0,0,1
72072356,4,0,1
72088992,25,4,1
72106668,25,1,1
72124348,36,1,1
72142044,1,0,1
72158688,0,1,1
72175316,4,0,1
72191948,1,0,1
72208596,0,4,1
72225236,16,1,1
72242920,16,4,1
72260596,0,0,1
72277236,1,0,1
72293880,1,1,1
72310512,0,0,1
72327148,4,4,1
72343808,4,0,1
72360428,25,0,1
72378112,16,0,1
72395800,9,1,1
72412444,4,0,1
72429088,4,1,1
72445712,49,0,1
72463396,25,0,1
72481080,9,4,1
72497712,16,9,1
72515400,0,4,1
72532040,9,1,1
72548672,4,0,1
72565304,0,0,1
72581956,16,1,1
72599644,4,9,1
72616284,1,0,1
72632908,0,0,1
72649548,16,0,1
72667236,100,9,1
72685964,25,4,1
72703628,4,1,1
72720288,1,0,1
72736924,9,4,1
72753560,196,1,1
72772288,49,9,1
72789956,36,1,1
72807644,25,16,1
72826352,1,1,1
72842984,9,0,1
72859624,9,0,1
72876280,9,0,1
72892912,64,4,1
72910592,16,1,1
72928284,1,0,1
72944928,0,1,1
72961564,25,4,1
72979240,0,1,1
72995884,16,1,1
73013560,4,0,1
73030200,36,1,1
73047876,36,9,1
73065564,0,1,1
73082192,1,0,1
73098832,0,0,1
73115480,1,4,1
73132116,9,0,1
73148760,1,0,1
73165392,9,0,1
73182036,0,4,1
73198684,0,0,1
73215320,1,1,1
73231952,0,0,1
73248592,1,0,1
73265232,4,0,1
73281888,4,1,1
73298520,0,0,1
73315152,0,1,1
73331800,49,1,1
73349472,4,0,1
73366116,4,1,1
73382752,0,0,1
73399400,0,0,1
73416040,16,4,1
73433720,0,0,1
73450352,9,0,1
73466992,4,0,1
73483636,4,1,1
73500272,0,0,1
73516916,0,1,1
73533560,0,0,1
73550200,16,1,1
73567872,0,0,1
73584520,9,9,1
73601168,0,1,1
73617796,0,0,1
73634436,0,1,1
73651076,0,1,1
73667720,0,1,1
73684360,4,9,1
73700996,4,0,1
73717640,1,0,1
73734284,1,4,1
73750924,4,0,1
73767544,0,0,1
73784196,9,4,1
73800848,1,0,1
73817484,4,1,1
73834120,1,0,1
73850764,9,1,1
73867396,4,0,1
73884044,9,4,1
73900680,0,1,1
73917312,0,1,1
73933964,0,1,1
73950600,9,0,1
73967232,0,0,1
73983868,16,9,1
74001556,25,1,1
74019236,9,4,1
74035872,0,4,1
74052516,1,1,1
74069156,4,0,1
74085792,9,0,1
74102432,0,0,1
74119072,4,1,1
74135720,1,4,1
74152360,0,1,1
74168996,1,0,1
74185628,1,1,1
74202272,0,1,1
74218916,9,4,1
74235560,1,4,1
74252200,1,0,1
74268860,1,1,1
74285484,0,4,1
74302116,4,0,1
74318748,1,0,1
74335400,1,0,1
74352044,1,0,1
74368680,1,0,1
74385304,0,0,1
74401964,4,4,1
74418604,1,0,1
74435232,0,1,1
74451872,1,1,1
74468516,1,0,1
74485168,0,0,1
74501808,4,9,1
74518428,1,0,1
74535088,0,1,1
74551732,4,0,1
74568360,1,4,1
74584984,0,4,1
74601636,4,1,1
74618276,0,4,1
74634924,1,9,1
74651556,1,0,1
74668200,0,1,1
74684840,0,0,1
74701472,1,0,1
74718108,1,9,1
74734760,0,4,1
74751400,4,0,1
74768036,1,0,1
74784668,0,0,1
74801320,1,4,1
74817964,1,0,1
74834600,1,0,1
74851232,1,0,1
74867876,1,0,1
74884528,1,0,1
74901152,4,1,1
74917788,1,1,1
74934440,1,0,1
74951088,1,0,1
74967716,1,0,1
74984344,0,0,1
75000996,1,1,1
75017640,4,0,1
75034268,1,4,1
75050916,9,0,1
75067568,1,0,1
75084196,0,1,1
75100836,4,4,1
75117468,1,0,1
75134124,0,1,1
75150772,1,1,1
75167396,1,0,1
75184024,0,0,1
75200676,4,9,1
75217324,1,0,1
75233956,0,1,1
75250596,4,0,1
75267244,0,0,1
75283876,4,0,1
75300504,4,1,1
75317152,1,1,1
75333800,0,0,1
75350452,4,1,1
75367084,0,1,1
75383704,0,0,1
75400352,4,1,1
75416996,1,0,1
75433628,0,0,1
75450276,1,1,1
75466924,1,0,1
75483560,1,0,1
75500188,16,16,1
75518912,1,16,1
75536608,0,9,1
75553240,4,0,1
75569888,4,1,1
75586504,4,1,1
75603156,4,1,1
75619792,1,0,1
75636440,4,1,1
75653076,1,0,1
75669720,9,4,1
75686352,0,0,1
75702996,0,0,1
75719620,4,1,1
75736284,1,0,1
75752920,4,0,1
75769564,1,1,1
75786184,1,0,1
75802844,1,1,1
75819472,0,0,1
75836108,9,0,1
75852760,9,1,1
75869412,1,4,1
75886036,0,0,1
75902664,0,1,1
75919312,0,0,1
75935964,9,4,1
75952588,9,1,1
75969232,9,0,1
75985868,16,4,1
76003556,0,0,1
76020196,4,9,1
76036836,4,0,1
76053468,0,0,1
76070124,4,1,1
76086752,1,4,1
76103396,1,0,1
76120028,9,4,1
76136680,0,1,1
76153312,4,0,1
76169960,9,4,1
76186588,0,0,1
76203248,1,0,1
76219884,1,4,1
76236516,9,0,1
76253144,4,0,1
76269800,16,16,1
76288516,0,1,1
76305160,1,0,1
76321788,0,0,1
76338444,1,1,1
76355076,0,0,1
76371720,1,0,1
76388364,9,9,1
76405008,0,0,1
76421632,1,0,1
76438268,4,1,1
76454900,0,0,1
76471564,0,0,1
76488204,0,4,1
76504840,1,4,1
76521460,0,1,1
76538116,4,1,1
76554752,0,0,1
76571388,0,0,1
76588028,1,0,1
76604676,4,4,1
76621312,0,0,1
76637960,9,1,1
76654596,1,0,1
76671252,9,1,1
76687880,36,9,1
76705556,4,0,1
76722200,1,0,1
76738832,4,0,1
76755484,1,1,1
76772112,1,0,1
76788764,4,9,1
76805408,1,0,1
76822032,4,0,1
76838672,1,4,1
76855312,0,0,1
76871956,1,4,1
76888612,4,16,1
76906280,0,0,1
76922928,36,1,1
76940600,81,4,1
76958272,4,0,1
76974916,4,0,1
76991560,1,0,1
77008212,1,4,1
77024836,1,0,1
77041480,1,4,1
77058124,9,1,1
77074756,0,1,1
77091392,16,1,1
77109084,36,9,1
77126760,0,1,1
77143404,9,4,1
77160036,9,4,1
77176676,0,0,1
77193328,9,1,1
77209960,1,1,1
77226604,9,1,1
77243240,1,0,1
77259884,0,0,1
77276528,1,4,1
77293156,0,0,1
77309800,0,0,1
77326448,4,1,1
77343080,1,0,1
77359716,4,1,1
77376356,16,4,1
77394040,0,0,1
77410676,1,0,1
77427328,4,1,1
77443960,1,0,1
77460592,0,0,1
77477232,0,4,1
77493872,1,0,1
77510520,4,1,1
77527164,16,4,1
77544852,1,0,1
77561480,4,1,1
77578112,1,0,1
77594760,16,9,1
77612444,0,4,1
77629072,0,1,1
77645724,4,9,1
77662360,0,0,1
77679004,9,1,1
77695640,16,4,1
77713304,0,4,1
77729956,4,16,1
77747648,16,9,1
77765324,9,0,1
77781948,36,4,1
77799644,1,9,1
77816272,1,0,1
77832908,0,1,1
77849544,16,0,1
77867244,9,4,1
77883872,0,0,1
77900516,4,0,1
77917148,1,0,1
77933804,1,1,1
77950436,25,4,1
77968128,25,4,1
77985800,4,0,1
78002452,1,4,1
78019080,1,4,1
78035716,9,1,1
78052348,0,0,1
78069008,4,1,1
78085644,9,4,1
78102272,4,0,1
78118908,1,0,1
78135560,1,0,1
78152188,0,1,1
78168840,1,0,1
78185484,4,1,1
78202132,0,1,1
78218756,9,0,1
78235396,25,9,1
78253080,1,4,1
78269720,4,1,1
78286368,4,1,1
78302992,0,1,1
78319644,9,0,1
78336288,1,1,1
78352932,9,1,1
78369552,0,0,1
78386204,1,1,1
78402852,1,1,1
78419480,9,0,1
78436112,4,4,1
78452760,1,0,1
78469392,0,0,1
78486044,0,1,1
78502684,1,1,1
78519312,1,0,1
78535952,0,0,1
78552600,1,0,1
78569236,4,1,1
78585892,1,4,1
78602528,1,0,1
78619164,4,0,1
78635792,1,0,1
78652436,4,4,1
78669076,0,0,1
78685732,0,1,1
78702360,4,0,1
78718992,0,0,1
78735644,1,1,1
78752272,0,1,1
78768904,1,1,1
78785560,1,1,1
78802204,16,1,1
78819880,0,1,1
78836516,0,9,1
78853152,0,9,1
78869808,4,1,1
78886448,0,0,1
78903072,9,4,1
78919716,0,0,1
78936360,1,0,1
78953004,1,4,1
78969636,4,0,1
78986292,0,0,1
79002924,16,4,1
79020588,0,0,1
79037228,4,1,1
79053872,4,1,1
79070524,1,1,1
79087148,0,0,1
79103800,0,1,1
79120448,4,0,1
79137080,1,0,1
79153708,16,1,1
79171388,1,0,1
79188036,9,4,1
79204676,1,0,1
79221320,1,0,1
79237956,1,0,1
79254600,0,0,1
79271240,4,0,1
79287876,1,1,1
79304520,0,1,1
79321160,9,1,1
79337804,0,0,1
79354424,4,0,1
79371076,25,4,1
79388756,0,1,1
79405408,1,0,1
79422040,9,9,1
79438668,0,0,1
79455316,0,0,1
79471952,0,4,1
79488596,1,1,1
79505232,0,0,1
79521888,9,4,1
79538516,0,0,1
79555152,1,0,1
79571784,9,4,1
79588436,0,0,1
79605080,4,0,1
79621724,9,1,1
79638356,1,0,1
79655000,1,0,1
79671636,4,4,1
79688268,0,0,1
79704912,0,1,1
79721564,1,4,1
79738200,1,0,1
79754832,0,0,1
79771476,4,1,1
79788120,1,0,1
79804768,4,0,1
79821408,9,4,1
79838040,1,0,1
79854676,0,0,1
79871320,4,4,1
79887952,0,0,1
79904588,0,0,1
79921252,4,4,1
79937880,1,0,1
79954508,0,0,1
79971152,4,9,1
79987800,0,0,1
80004440,1,0,1
80021076,4,4,1
80037712,0,0,1
80054356,1,0,2
80071000,9,4,2
80087636,4,1,2
80104272,0,0,2
80120924,4,1,2
80137564,1,0,2
80154200,4,1,2
80170836,16,9,2
80188520,0,1,2
80205156,1,1,2
80221800,1,1,2
80238440,1,0,2
80255076,1,0,2
80271720,1,0,2
80288356,4,1,2
80304984,1,0,2
80321640,9,4,2
80338280,0,0,2
80354916,9,1,2
80371544,4,9,2
80388192,0,0,2
80404832,9,0,2
80421484,1,1,2
80438120,1,0,2
80454764,1,0,2
80471400,1,0,2
80488032,1,0,2
80504680,1,1,2
80521324,0,1,2
80537976,1,1,2
80554592,4,0,2
80571236,1,1,2
80587884,0,4,2
80604520,1,0,2
80621160,4,4,2
80637800,0,0,2
80654436,1,1,2
80671072,1,1,2
80687708,0,0,2
80704360,4,1,2
80721012,1,0,2
80737652,4,1,2
80754268,0,0,2
80770912,1,0,2
80787560,1,0,2
80804208,0,1,2
80820844,0,1,2
80837480,0,1,2
80854124,9,1,2
80870756,0,1,2
80887388,0,1,2
80904036,9,0,2
80920680,4,0,2
80937328,1,1,2
80953960,9,1,2
80970592,4,1,2
80987236,0,1,2
81003876,1,0,2
81020512,0,0,2
81037160,9,4,2
81053804,1,0,2
81070436,0,0,2
81087076,1,1,2
81103716,0,0,2
81120356,1,0,2
81137016,4,1,2
81153644,4,1,2
81170264,0,0,2
81186924,1,4,2
81203564,1,0,2
81220200,1,1,2
81236844,0,1,2
81253484,1,0,2
81270116,0,1,2
81286748,0,1,2
81303392,9,0,2
81320056,4,1,2
81336692,0,1,2
81353320,16,1,2
81371000,1,4,2
81387656,4,0,2
81404284,1,0,2
81420920,1,0,2
81437564,4,4,2
81454196,0,0,2
81470836,4,0,2
81487480,9,9,2
81504116,1,0,2
81520760,0,0,2
81537396,4,16,2
81555068,0,9,2
81571704,0,4,2
81588356,0,4,2
81605008,4,1,2
81621636,1,0,2
81638288,9,9,2
81654924,1,0,2
81671564,4,0,2
81688192,9,1,2
81704836,1,0,2
81721476,0,0,2
81738128,1,1,2
81754760,0,0,2
81771396,9,0,2
81788032,9,1,2
81804672,0,0,2
81821316,4,1,2
81837968,4,1,2
81854608,0,0,2
81871248,16,1,2
81888908,16,1,2
81906592,0,1,2
81923244,0,1,2
81939880,0,1,2
81956512,0,4,2
81973148,9,0,2
81989792,0,0,2
82006432,1,0,2
82023076,4,4,2
82039716,0,1,2
82056372,4,1,2
82072996,0,0,2
82089636,4,0,2
82106268,36,4,2
82123964,1,9,2
82140596,0,9,2
82157232,1,1,2
82173868,0,0,2
82190528,9,1,2
82207144,9,9,2
82223792,0,0,2
82240428,4,1,2
82257080,0,16,2
82274760,4,4,2
82291400,1,0,2
82308032,4,0,2
82324680,81,9,2
82342356,1,0,2
82358992,1,0,2
82375628,0,4,2
82392280,9,0,2
82408912,1,0,2
82425552,0,0,2
82442192,9,1,2
82458844,0,0,2
82475476,16,9,2
82493160,9,1,2
82509788,16,4,2
82527472,9,4,2
82544112,1,0,2
82560748,4,1,2
82577400,1,1,2
82594048,9,1,2
82610676,0,0,2
82627312,0,0,2
82643964,0,1,2
82660604,16,0,2
82678272,1,0,2
82694928,9,1,2
82711548,0,1,2
82728192,0,0,2
82744836,1,9,2
82761476,16,0,2
82779160,0,0,2
82795800,4,9,2
82812436,0,1,2
82829072,0,1,2
82845712,0,4,2
82862360,1,0,2
82879004,4,0,2
82895644,9,1,2
82912288,0,4,2
82928924,4,0,2
82945564,0,0,2
82962196,9,4,2
82978840,0,1,2
82995480,1,9,2
83012128,1,0,2
83028756,1,0,2
83045396,0,1,2
83062036,0,1,2
83078684,4,1,2
83095308,0,25,2
83112996,1,25,2
83130680,0,9,2
83147320,4,0,2
83163952,4,9,2
83180600,0,1,2
83197236,1,0,2
83213884,1,1,2
83230520,1,0,2
83247168,1,1,2
83263800,1,4,2
83280424,0,0,2
83297068,4,0,2
83313724,4,9,2
83330360,1,0,2
83346984,0,0,2
83363632,4,9,2
83380288,1,1,2
83396920,1,4,2
83413560,1,9,2
83430188,1,1,2
83446844,9,0,2
83463480,9,16,2
83481156,0,1,2
83497792,9,1,2
83514440,9,9,2
83531076,1,0,2
83547716,1,0,2
83564356,1,1,2
83581000,0,1,2
83597632,0,0,2
83614276,1,4,2
83630924,1,4,2
83647560,1,1,2
83664200,1,0,2
83680828,0,0,2
83697468,4,1,2
83714132,1,1,2
83730772,1,1,2
83747396,4,0,2
83764028,1,1,2
83780688,1,9,2
83797316,4,1,2
83813952,4,0,2
83830596,0,1,2
83847232,1,0,2
83863876,0,1,2
83880508,1,0,2
83897156,4,1,2
83913800,4,1,2
83930448,1,0,2
83947080,1,1,2
83963716,1,4,2
83980352,0,0,2
83996996,0,0,2
84013644,9,1,2
84030268,9,49,2
84047960,16,25,2
84066672,81,9,2
84084356,36,9,2
84102044,1,0,2
84118684,16,1,2
84136360,9,0,2
84153004,0,1,2
84169632,4,1,2
84186280,1,1,2
84202912,0,0,2
84219556,1,1,2
84236188,4,0,2
84252840,0,4,2
84269492,0,0,2
84286116,49,0,2
84303780,25,1,2
84321480,1,0,2
84338112,1,0,2
84354748,9,0,2
84371400,9,4,2
84388048,1,4,2
84404676,1,1,2
84421316,16,0,2
84438988,0,1,2
84455644,1,1,2
84472276,0,4,2
84488920,4,0,2
84505548,1,9,2
84522204,1,16,2
84539880,4,0,2
84556508,0,1,2
84573156,1,1,2
84589800,36,1,2
84607476,4,1,2
84624116,1,1,2
84640744,16,1,2
84658432,16,0,2
84676124,9,0,2
84692760,1,0,2
84709416,16,1,2
84727080,0,1,2
84743728,0,1,2
84760356,4,9,2
84777000,1,0,2
84793636,0,0,2
84810288,1,9,2
84826912,4,0,2
84843552,0,0,2
84860204,4,9,2
84876840,4,0,2
84893476,0,1,2
84910120,16,0,2
84927808,1,4,2
84944436,1,16,2
84962116,0,9,2
84978764,4,16,2
84996444,9,4,2
85013080,0,0,2
85029712,36,9,2
85047404,1,9,2
85064044,16,4,2
85081708,16,9,2
85099392,0,0,2
85116036,1,1,2
85132676,4,0,2
85149324,4,1,2
85165956,4,0,2
85182608,1,0,2
85199248,0,1,2
85215876,4,0,2
85232508,9,0,2
85249160,64,1,2
85266836,9,4,2
85283468,1,4,2
85300104,0,0,2
85316764,36,1,2
85334436,16,0,2
85352116,1,0,2
85368764,0,1,2
85385412,0,0,2
85402036,16,1,2
85419704,4,9,2
85436348,4,0,2
85452996,0,4,2
85469640,9,9,2
85486272,0,0,2
85502908,1,0,2
85519564,9,0,2
85536196,1,1,2
85552840,0,4,2
85569476,4,9,2
85586120,1,0,2
85602756,0,1,2
85619388,0,16,2
85637068,9,1,2
85653716,0,4,2
85670360,1,4,2
85686992,0,0,2
85703628,25,16,2
85722356,4,25,2
85740032,4,4,2
85756684,4,4,2
85773316,36,1,2
85791000,9,16,2
85808680,4,9,2
85825312,1,4,2
85841960,0,0,2
85858596,16,9,2
85876272,49,0,2
85893960,1,0,2
85910596,0,0,2
85927240,1,0,2
85943880,36,4,2
85961552,1,4,2
85978192,4,4,2
85994848,1,1,2
86011476,9,0,2
86028112,16,4,2
86045796,0,0,2
86062436,0,4,2
86079068,0,1,2
86095716,1,1,2
86112356,0,1,2
86129000,1,25,2
86146684,9,9,2
86163324,9,1,2
86179964,1,0,2
86196596,0,4,2
86213236,1,1,2
86229868,0,4,2
86246524,0,0,2
86263172,1,1,2
86279796,25,0,2
86297464,25,1,2
86315160,4,4,2
86331808,16,0,2
86349484,4,0,2
86366112,4,0,2
86382760,4,1,2
86399396,9,0,2
86416028,1,0,2
86432672,9,4,2
86449320,0,1,2
86465964,9,0,2
86482588,9,1,2
86499224,9,0,2
86515884,25,9,2
86533556,49,4,2
86551232,81,4,2
86568912,36,1,2
86586612,4,0,2
86603228,25,9,2
86620908,36,9,2
86638600,64,4,2
86656284,36,16,2
86675000,16,9,2
86692672,0,0,2
86709316,16,4,2
86727000,0,4,2
86743640,4,1,2
86760268,0,4,2
86776912,0,0,2
86793564,1,4,2
86810188,0,1,2
86826832,0,4,2
86843480,1,0,2
86860124,4,0,2
86876744,9,9,2
86893384,0,0,2
86910036,1,0,2
86926684,9,4,2
86943312,0,0,2
86959960,9,1,2
86976604,1,9,2
86993244,25,1,2
87010920,0,0,2
87027556,1,0,2
87044204,4,1,2
87060844,1,0,2
87077472,1,4,2
87094112,9,0,2
87110756,4,1,2
87127400,0,1,2
87144032,0,4,2
87160668,16,1,2
87178360,1,4,2
87195016,1,1,2
87211632,9,0,2
87228280,1,0,2
87244916,36,4,2
87262600,25,0,2
87280280,25,0,2
87297948,4,0,2
87314596,1,0,2
87331236,0,1,2
87347876,0,0,2
87364508,0,0,2
87381160,4,1,2
87397804,1,4,2
87414436,9,16,2
87432108,1,1,2
87448760,0,1,2
87465404,1,1,2
87482044,0,1,2
87498676,16,1,2
87516360,25,0,2
87534020,0,0,2
87550668,4,1,2
87567308,0,0,2
87583956,36,9,2
87601632,4,9,2
87618276,4,4,2
87634912,16,9,2
87652604,0,1,2
87669228,4,0,2
87685868,25,0,2
87703564,36,4,2
87721248,1,1,2
87737876,4,9,2
87754516,1,25,2
87772204,4,4,2
87788844,0,1,2
87805480,4,1,2
87822116,16,9,2
87839796,0,0,2
87856444,1,0,2
87873076,16,4,2
87890760,1,0,2
87907408,0,1,2
87924052,4,1,2
87940676,1,0,2
87957316,0,1,2
87973964,1,4,2
87990604,4,9,2
88007240,9,1,2
88023872,64,4,2
88041564,4,1,2
88058208,4,4,2
88074836,1,1,2
88091464,4,0,2
88108120,0,4,2
88124760,9,9,2
88141388,0,0,2
88158036,1,1,2
88174672,0,1,2
88191316,9,4,2
88207948,4,0,2
88224592,16,0,2
88242276,0,0,2
88258916,4,4,2
88275548,0,4,2
88292196,25,1,2
88309884,1,0,2
88326528,9,1,2
88343164,16,4,2
88360832,0,0,2
88377484,9,1,2
88394116,4,4,2
88410752,16,0,2
88428424,4,0,2
88445076,1,4,2
88461724,4,4,2
88478352,49,9,2
88496032,16,4,2
88513724,4,1,2
88530360,16,0,2
88548040,25,0,2
88565708,49,1,2
88583400,25,0,2
88601072,16,1,2
88618748,25,4,2
88636440,4,1,2
88653072,1,0,2
88669720,0,4,2
88686344,36,0,2
88704044,81,16,2
88722756,16,4,2
88740436,0,0,2
88757076,1,0,2
88773712,0,0,2
88790356,25,4,2
88808032,9,1,2
88824664,1,0,2
88841328,1,0,2
88857968,1,1,2
88874596,25,0,2
88892276,36,4,2
88909964,0,0,2
88926604,9,1,2
88943240,9,4,2
88959872,0,4,2
88976524,1,0,2
88993160,0,1,2
89009796,1,0,2
89026432,0,4,2
89043080,1,4,2
89059716,25,0,2
89077388,4,1,2
89094036,0,0,2
89110676,9,1,2
89127316,9,0,2
89143948,9,1,2
89160592,25,0,2
89178272,16,4,2
89195948,25,4,2
89213628,16,1,2
89231312,4,1,2
89247964,4,0,2
89264600,9,4,2
89281240,4,16,2
89298908,9,1,2
89315564,25,4,2
89333236,1,4,2
89349888,9,1,2
89366508,0,0,2
89383172,1,1,2
89399800,9,0,2
89416428,4,0,2
89433068,1,0,2
89449724,0,9,2
89466356,25,0,2
89484032,0,0,2
89500684,36,4,2
89518360,0,1,2
89534992,0,0,2
89551628,16,0,2
89569324,4,1,2
89585964,16,0,2
89603640,1,0,2
89620276,16,0,2
89637956,0,0,2
89654596,0,1,2
89671228,0,4,2
89687876,4,36,2
89705568,9,1,2
89722212,36,9,2
89739884,4,4,2
89756512,25,4,2
89774196,9,0,2
89790844,4,9,2
89807488,16,0,2
89825160,0,1,2
89841800,0,0,2
89858452,9,1,2
89875068,64,1,2
89892756,16,4,2
89910440,0,1,2
89927068,4,0,2
89943704,36,0,2
89961396,16,4,2
89979088,1,0,2
89995708,1,0,2
90012352,36,4,2
90030032,25,16,2
90048764,0,1,2
90065392,36,4,4
90083084,121,9,4
90101804,16,0,4
90119492,0,0,4
90136112,4,1,4
90152748,25,4,4
90170436,64,0,4
90188112,25,0,4
90205788,4,1,4
90222432,9,0,4
90239080,4,1,4
90255716,9,0,4
90272356,4,1,4
90288992,16,4,4
90306672,4,0,4
90323316,25,0,4
90340996,9,1,4
90357628,16,0,4
90375312,25,0,4
90392992,16,0,4
90410676,4,1,4
90427308,9,0,4
90443960,1,0,4
90460596,0,1,4
90477236,9,0,4
90493868,1,4,4
90510524,0,36,4
90528192,4,0,4
90544832,1,0,4
90561456,4,0,4
90578120,0,9,4
90594760,9,0,4
90611396,4,0,4
90628020,0,4,4
90644676,1,0,4
90661312,4,0,4
90677956,16,1,4
90695632,1,4,4
90712284,4,1,4
90728920,16,4,4
90746592,0,0,4
90763232,0,1,4
90779876,1,0,4
90796512,25,1,4
90814184,1,0,4
90830824,16,1,4
90848520,36,9,4
90866204,1,1,4
90882832,9,1,4
90899492,9,4,4
90916124,0,4,4
90932768,1,9,4
90949392,1,0,4
90966036,16,0,4
90983724,49,1,4
91001396,16,4,4
91019076,1,1,4
91035724,25,1,4
91053400,4,0,4
91070036,1,0,4
91086676,0,4,4
91103324,1,9,4
91119964,4,4,4
91136592,25,4,4
91154276,1,0,4
91170916,0,0,4
91187564,36,9,4
91205236,25,1,4
91222912,25,1,4
91240608,4,0,4
91257252,4,0,4
91273880,0,1,4
91290516,4,1,4
91307164,1,4,4
91323804,49,16,4
91342516,9,1,4
91359144,0,4,4
91375808,0,0,4
91392428,36,4,4
91410116,4,0,4
91426748,36,36,4
91445472,25,49,4
91464196,0,16,4
91481868,0,0,4
91498512,9,0,4
91515160,9,0,4
91531800,0,4,4
91548428,9,1,4
91565084,16,0,4
91582764,9,0,4
91599408,0,9,4
91616044,0,49,4
91633720,36,0,4
91651404,1,1,4
91668024,0,4,4
91684676,0,0,4
91701316,1,0,4
91717960,0,4,4
91734600,4,4,4
91751236,1,9,4
91767876,0,9,4
91784520,4,0,4
91801148,4,0,4
91817800,25,4,4
91835480,16,0,4
91853160,4,1,4
91869788,0,16,4
91887480,1,1,4
91904112,4,4,4
91920752,16,0,4
91938432,4,0,4
91955084,4,0,4
91971724,1,4,4
91988364,0,4,4
92004992,64,16,4
92023704,64,25,4
92042436,16,9,4
92060116,4,0,4
92076752,16,0,4
92094432,16,1,4
92112116,0,0,4
92128756,1,1,4
92145384,64,4,4
92163080,36,1,4
92180760,25,1,4
92198448,256,1,4
92217152,256,9,4
92235884,9,64,4
92253572,9,49,4
92271240,4,9,4
92287868,1,1,4
92304532,1,49,4
92322208,16,100,4
92341960,0,4,4
92358592,25,81,4
92377328,1,49,4
92394996,100,4,4
92413708,81,1,4
92431404,0,9,4
92448044,144,0,4
92466748,289,16,4
92486516,49,25,4
92505232,4,36,4
92522912,1,49,4
92540592,1,144,4
92559312,9,361,4
92578036,64,49,4
92596760,169,100,4
92617544,36,81,4
92636280,0,16,4
92653964,1,9,4
92670588,0,49,4
92688276,1,25,4
92705960,64,9,4
92723636,64,25,4
92742356,49,25,4
92761080,81,16,4
92779796,25,49,4
92798516,1,225,4
92817236,36,25,4
92835960,9,16,4
92853636,0,144,4
92872356,49,1296,4
92893148,100,400,4
92913964,49,49,4
92932676,169,1,4
92951400,100,256,4
92972200,144,3025,4
92994036,784,676,4
93014828,225,16,4
93034604,169,25,4
93054360,144,36,4
93074124,1,1,4
93090748,9,81,4
93108456,16,529,4
93128208,4,196,4
93146928,25,1,4
93164600,9,1,4
93181244,4,169,4
93199952,25,484,4
93219720,36,1,4
93237400,36,841,4
93257144,100,529,4
93277952,16,49,4
93296680,36,169,4
93316440,0,4,4
93333080,144,441,4
93353868,64,49,4
93372596,36,0,4
93390276,1,0,4
93406916,4,144,4
93425632,4,144,4
93444360,36,144,4
93464108,36,144,4
93483868,25,9,4
93501560,16,9,4
93519244,1,0,4
93535876,0,9,4
93552508,0,4,4
93569160,0,81,4
93586856,9,9,4
93603468,1,400,4
93622180,81,289,4
93641956,81,100,4
93661732,9,121,4
93680436,4,100,4
93699168,100,100,4
93719964,1,16,4
93737628,289,400,4
93758428,121,144,4
93779236,36,64,4
93797960,9,16,4
93815628,25,100,4
93835404,64,361,4
93855160,36,36,4
93873876,1,81,4
93891548,1,121,4
93910272,4,1681,4
93930044,49,400,4
93949800,49,36,4
93968524,4,121,4
93987248,0,16,4
94004908,36,289,4
94024668,16,16,4
94043392,36,289,4
94063144,64,1296,4
94083948,64,400,4
94103728,49,4,4
94121388,16,4,4
94139068,16,25,4
94157792,4,9,4
94174440,1,1,4
94191064,4,4,4
94207720,16,100,4
94227488,9,256,4
94246204,9,25,4
94263876,9,16,4
94281564,4,36,4
94299248,49,16,4
94317964,16,49,4
94336680,1,49,4
94354352,1,25,4
94372036,0,25,4
94389708,0,36,4
94407396,0,4,4
94424028,0,16,4
94441720,1,0,4
94458356,1,9,4
94475000,25,25,4
94493716,49,169,4
94513472,49,81,4
94532196,16,9,4
94549876,16,121,4
94569640,25,121,4
94589396,4,16,4
94607068,0,0,4
94623712,0,1,4
94640360,0,0,4
94657000,0,16,4
94674676,4,16,4
94692340,25,4,4
94710040,25,4,4
94727732,16,25,4
94746440,64,1,4
94764116,1,4,4
94780764,4,289,4
94799472,144,900,4
94820272,289,841,4
94841080,121,4,4
94859808,49,1,4
94877476,1,9,4
94894124,16,1,4
94911800,81,49,4
94930508,1,4,4
94947152,0,36,4
94964844,4,225,4
94983564,25,324,4
95003316,9,9,4
95019948,1,36,4
95037644,1,36,4
95055316,0,1,4
95071956,0,0,4
95088596,1,49,4
95106280,1,1,4
95122908,0,16,4
95140588,25,121,4
95160364,36,64,4
95179084,4,16,4
95196756,121,289,4
95217552,100,441,4
95238352,81,361,4
95258116,64,144,4
95277884,4,36,4
95295552,64,324,4
95315324,16,64,4
95334044,1,0,4
95350672,4,4,4
95367328,4,4,4
95383968,25,81,4
95402672,16,16,4
95421392,64,64,4
95440112,400,1225,4
95461956,1156,676,4
95483792,900,121,4
95504596,4,576,4
95523316,121,121,4
95544108,64,0,4
95561804,81,49,4
95580524,81,169,4
95600280,25,0,4
95617948,0,49,4
95635640,0,25,4
95653312,9,0,4
95669960,0,9,4
95686592,64,121,4
95706360,4,324,4
95725072,25,100,4
95744836,81,64,4
95763556,256,49,4
95783320,361,1,4
95802028,49,1,4
95819700,9,4,4
95836356,4,49,4
95854040,1,1,4
95870684,4,16,4
95888348,0,4,4
95905004,0,4,4
95921640,16,36,4
95940356,36,225,4
95960120,49,144,4
95979876,36,841,4
95999636,25,841,4
96019388,81,64,4
96038116,0,1,4
96054764,9,4,4
96071396,4,100,4
96090124,1,0,4
96106752,0,36,4
96124440,81,441,4
96144184,81,121,4
96163952,36,36,4
96182676,25,121,4
96202440,16,121,4
96222188,1,121,4
96240920,25,9,4
96258600,49,289,4
96278344,25,25,4
96297072,49,4,4
96314760,4,16,4
96332432,0,36,4
96350112,1,25,4
96367808,1,0,4
96384432,4,0,4
96401076,1,1,4
96417712,4,0,4
96434368,0,4,4
96450988,0,25,4
96468676,9,225,4
96487388,4,25,4
96505076,16,16,4
96523804,36,100,4
96543556,9,49,4
96561236,1,0,4
96577888,1,1,4
96594504,4,36,4
96612200,36,81,4
96630932,25,1,4
96648604,4,0,4
96665228,0,16,4
96682912,1,36,4
96700600,4,4,4
96717228,16,36,4
96735948,0,16,4
96753624,0,1,4
96770280,16,9,4
96787956,9,0,4
96804600,1,0,4
96821228,1,16,4
96838916,1,4,4
96855560,49,100,4
96875312,225,324,4
96896116,100,144,4
96916912,25,81,4
96935636,81,144,4
96955396,144,100,4
96976196,81,9,4
96993876,4,25,4
97011556,81,1,4
97029236,4,144,4
97047960,16,9,4
97065632,36,484,4
97085392,0,100,4
97104128,64,36,4
97122836,64,121,4
97142588,36,81,4
97161324,4,49,4
97178996,9,1,4
97195624,0,4,4
97212276,16,196,4
97232036,16,36,4
97250764,25,1,4
97268428,9,1,4
97285068,0,1,4
97301720,16,1,4
97319384,49,9,4
97337072,16,25,4
97355792,36,121,4
97375568,64,256,4
97395308,25,25,4
97414040,25,1,4
97431716,4,25,4
97449388,0,64,4
97467068,0,81,4
97484740,4,225,4
97503476,9,225,4
97522204,4,0,4
97538840,1,100,4
97557556,36,36,4
97576276,81,49,4
97594992,9,36,4
97612664,25,100,4
97632444,100,484,4
97653228,121,256,4
97674040,100,0,4
97692748,16,64,4
97711476,1,64,4
97729156,1,0,4
97745784,1,64,4
97763484,1,576,4
97782192,9,64,4
97799884,4,4,4
97816504,25,0,4
97834196,16,1,4
97851872,1,0,4
97868516,0,4,4
97885144,9,144,4
97903880,16,100,4
97923628,0,64,4
97941316,0,1,4
97957964,0,9,4
97974608,4,49,4
97992272,9,16,4
98009956,4,16,4
98027632,4,81,4
98045316,144,36,4
98065072,36,1,4
98082740,0,16,4
98100440,4,25,4
98118112,9,9,4
98134756,4,4,4
98151388,0,64,4
98169080,4,64,4
98186756,1,81,4
98204440,4,49,4
98222120,0,81,4
98239804,1,121,4
98258516,4,121,4
98277236,4,16,4
98294912,4,0,4
98311568,4,0,4
98328196,0,9,4
98344832,1,121,4
98363564,16,225,4
98383312,25,64,4
98402028,4,16,4
98419708,0,1,4
98436368,1,36,4
98454040,0,49,4
98471720,16,9,4
98489412,1,4,4
98506032,9,0,4
98522664,4,36,4
98540356,0,1,4
98557000,0,1,4
98573640,1,49,4
98591324,4,64,4
98608992,1,16,4
98626684,0,1,4
98643328,1,9,4
98659956,4,0,4
98676588,0,4,4
98693240,0,1,4
98709884,25,4,4
98727556,25,0,4
98745228,0,9,4
98761876,0,16,4
98779568,9,9,4
98796196,9,36,4
98813868,4,25,4
98831560,1,1,4
98848184,16,64,4
98866904,36,9,4
98884588,1,400,4
98903312,1,121,4
98922028,16,1,4
98939716,1,9,4
98956360,1,4,4
98972996,9,0,4
98989632,4,16,4
99007312,1,36,4
99025008,1,25,4
99042680,1,169,4
99061392,1,36,4
99079072,0,256,4
99097800,0,81,4
99115468,0,100,4
99134200,9,81,4
99151868,0,0,4
99168520,36,4,4
99186204,9,144,4
99204920,4,81,4
99222600,25,25,4
99241324,0,4,4
99257948,0,36,4
99275640,4,256,4
99294356,9,324,4
99313080,25,256,4
99332824,0,100,4
99351560,1,16,4
99369236,1,4,4
99385888,4,225,4
99404596,1,144,4
99423324,16,64,4
99442044,4,1,4
99458672,4,9,4
99475316,4,16,4
99492996,4,9,4
99509648,9,4,4
99526276,4,400,4
99544988,1,400,4
99563716,25,49,4
99582436,4,1,4
99599076,16,9,4
99616744,64,169,4
99636516,9,16,4
99654192,0,25,4
99671876,9,81,4
99689556,4,9,4
99706192,1,25,4
99723872,0,4,4
99740524,9,1,4
99757156,1,16,4
99774848,1,25,4
99792508,4,121,4
99811224,0,121,4
99829960,4,0,4
99846596,1,81,4
99864280,1,49,4
99881956,9,25,4
99899636,0,4,4
99916268,0,25,4
99933956,9,64,4
99951644,1,4,4
99968276,0,256,4
99986996,1,49,4
100004672,4,1,4
100022352,9,0,4
100040040,16,100,4
100060836,36,256,5
100081636,25,324,5
100102432,64,676,5
100123232,81,144,5
100144032,49,4,5
100162760,25,9,5
100181472,9,1,5
100199160,25,9,5
100217888,36,16,5
100237636,4,0,5
100255308,0,4,5
100272992,1,49,5
100291712,0,81,5
100310444,0,4,5
100328116,1,36,5
100346828,16,196,5
100367632,16,64,5
100387396,25,9,5
100406124,9,1,5
100423796,1,49,5
100442516,1,9,5
100460196,1,64,5
100478912,16,49,5
100498684,64,36,5
100518444,25,4,5
100537148,0,0,5
100554840,1,4,5
100572524,1,9,5
100590196,0,0,5
100607876,0,49,5
100626596,0,16,5
100645308,9,16,5
100664036,9,4,5
100681712,1,64,5
100700452,0,100,5
100720184,0,100,5
100739948,4,529,5
100759716,25,196,5
100780520,81,144,5
100801312,49,9,5
100820036,4,121,5
100839792,4,81,5
100858504,16,0,5
100877224,9,36,5
100895964,36,36,5
100915728,1,1,5
100933388,0,64,5
100952116,4,16,5
100970840,4,4,5
100988516,4,16,5
101007228,9,4,5
101024916,0,100,5
101044672,0,361,5
101064432,4,49,5
101083164,9,1,5
101100848,1,1,5
101118516,1,4,5
101136192,0,0,5
101153880,4,256,5
101173636,9,100,5
101193396,1,0,5
101211072,4,0,5
101228752,4,49,5
101247464,9,25,5
101266196,9,36,5
101284920,1,81,5
101303640,1,64,5
101322348,0,9,5
101340032,0,16,5
101358768,9,196,5
101378516,9,169,5
101398284,16,36,5
101418040,16,4,5
101436756,9,64,5
101455476,4,196,5
101475228,4,25,5
101493960,9,36,5
101512672,9,64,5
101531400,16,0,5
101550116,0,16,5
101568836,1,49,5
101587548,25,1,5
101606272,25,1,5
101624992,9,1,5
101642676,25,0,5
101661396,16,16,5
101681156,9,4,5
101698836,9,49,5
101717556,25,144,5
101738356,0,25,5
101757088,4,1,5
101774764,1,36,5
101793480,4,25,5
101812188,4,16,5
101830916,1,16,5
101849640,0,256,5
101869384,9,64,5
101888120,36,1,5
101906832,16,4,5
101925556,9,25,5
101944268,0,25,5
101963004,1,0,5
101980664,16,9,5
101999388,16,9,5
102018116,16,0,5
102036836,25,9,5
102055548,4,0,5
102073244,1,1,5
102090920,9,0,5
102108588,0,4,5
102126268,16,25,5
102146036,16,1,5
102164756,0,16,5
102183472,4,9,5
102201152,0,9,5
102218840,4,25,5
102237556,196,16,5
102258352,256,49,5
102279152,25,324,5
102299964,4,36,5
102318664,0,49,5
102337388,225,841,5
102359244,625,1521,5
102382116,289,625,5
102403952,4,484,5
102423720,121,324,5
102445548,4,0,5
102463224,121,576,5
102485076,9,676,5
102504844,9,144,5
102524588,0,169,5
102544336,0,256,5
102564112,16,100,5
102584916,36,25,5
102604676,16,9,5
102623396,4,100,5
102643164,25,144,5
102663960,64,16,5
102683716,64,16,5
102703476,36,0,5
102722192,0,9,5
102739876,25,16,5
102759652,64,4,5
102778348,36,225,5
102799156,400,961,5
102820996,784,729,5
102842840,100,4,5
102862592,25,361,5
102883400,9,289,5
102903160,36,784,5
102923944,81,900,5
102944752,64,144,5
102965568,1,81,5
102984272,49,100,5
103005084,36,4,5
103023796,0,16,5
103042528,1,169,5
103062272,4,49,5
103081000,36,4,5
103099720,25,144,5
103120520,49,196,5
103141308,9,4,5
103158996,9,9,5
103176676,100,9,5
103196436,16,225,5
103217244,1,64,5
103235960,25,4,5
103254672,9,4,5
103272348,1,16,5
103291080,4,9,5
103308748,1,0,5
103326444,1,1,5
103344108,16,16,5
103363884,49,49,5
103383620,324,144,5
103405472,121,100,5
103427320,16,0,5
103446044,0,0,5
103463704,9,4,5
103481388,1,0,5
103499072,4,81,5
103517796,4,1,5
103535476,16,9,5
103554196,9,100,5
103573944,16,0,5
103592668,64,0,5
103611384,16,9,5
103630116,4,1,5
103647792,0,9,5
103665484,4,9,5
103683156,36,9,5
103701876,81,64,5
103721636,1,121,5
103741384,0,49,5
103760116,16,4,5
103778836,64,144,5
103799636,100,576,5
103821468,121,676,5
103843316,64,484,5
103864116,0,9,5
103881792,16,0,5
103900516,0,64,5
103919240,4,100,5
103938996,9,49,5
103957720,16,4,5
103976428,0,1,5
103994108,64,16,5
104013880,81,9,5
104032604,25,4,5
104051324,1,9,5
104068996,0,64,5
104087720,4,144,5
104107480,25,9,5
104126188,36,36,5
104145964,9,169,5
104165724,0,16,5
104184440,9,4,5
104202120,0,9,5
104219796,9,9,5
104237476,16,0,5
104256200,25,16,5
104275952,4,0,5
104293636,1,16,5
104312364,9,81,5
104331076,4,81,5
104349796,1,16,5
104368528,4,9,5
104386200,1,25,5
104404912,9,16,5
104423636,16,25,5
104443388,1,169,5
104463156,1,25,5
104481880,1,4,5
104499564,0,16,5
104518280,4,64,5
104536988,9,4,5
104554672,1,0,5
104572360,1,0,5
104590036,0,1,5
104607720,0,1,5
104625404,1,25,5
104644116,4,0,5
104661788,9,0,5
104679476,9,4,5
104697160,4,0,5
104714832,0,4,5
104732508,0,4,5
104750204,9,0,5
104767880,16,1,5
104786584,4,0,5
104804256,4,25,5
104822992,0,196,5
104842748,0,121,5
104862508,0,4,5
104880196,1,36,5
104898920,9,289,5
104918672,16,64,5
104938424,9,0,5
104956116,1,0,5
104973792,0,1,5
104991468,0,25,5
105010200,4,64,5
105028924,0,64,5
105047640,9,9,5
105065316,1,16,5
105084032,4,121,5
105103792,4,144,5
105123556,1,16,5
105142280,4,1,5
105159952,4,0,5
105177640,1,9,5
105195320,4,25,5
105214052,1,4,5
105231728,1,64,5
105250432,0,100,5
105270192,0,36,5
105288916,1,49,5
105307644,4,0,5
105325324,1,9,5
105343004,16,49,5
105362752,49,36,5
105382508,4,121,5
105402272,100,729,5
105424112,144,196,5
105445948,49,25,5
105465720,4,0,5
105483400,1,49,5
105502116,16,9,5
105520836,64,25,5
105540592,9,16,5
105559320,0,1,5
105577008,9,1,5
105594676,4,49,5
105613404,1,100,5
105633160,9,4,5
105650828,81,144,5
105671632,64,9,5
105690356,0,36,5
105709080,0,4,5
105726752,16,64,5
105746520,0,0,5
105764200,4,225,5
105783952,16,225,5
105804756,4,36,5
105823480,0,0,5
105841160,9,0,5
105858832,36,16,5
105878596,49,49,5
105898352,25,81,5
105918112,0,4,5
105935784,9,0,5
105953484,9,4,5
105971152,4,0,5
105988840,1,1,5
106006516,4,0,5
106024208,16,25,5
106043964,9,9,5
106061636,1,64,5
106080364,16,1,5
106099076,0,100,5
106118836,16,196,5
106139624,1,36,5
106158364,1,49,5
106177072,25,169,5
106197876,0,16,5
106216596,25,36,5
106236360,4,169,5
106256116,9,100,5
106275872,36,9,5
106294596,1,9,5
106312280,1,36,5
106331000,9,64,5
106349728,9,1,5
106367392,0,64,5
106386120,4,49,5
106404836,9,1,5
106422520,0,9,5
106440204,4,4,5
106457880,1,16,5
106476600,0,1,5
106494284,4,36,5
106512996,0,9,5
106530680,0,4,5
106548364,4,16,5
106567076,25,100,5
106587880,36,16,5
106607644,9,4,5
106625320,0,0,5
106643000,4,36,5
106661708,4,36,5
106680432,1,25,5
106699156,4,25,5
106717868,4,4,5
106735552,4,9,5
106753240,1,4,5
106770916,1,1,5
106788588,0,1,5
106806260,0,0,5
106823956,0,1,5
106841640,0,36,5
106860356,0,144,5
106880112,4,16,5
106898836,9,0,5
106916508,0,9,5
106934180,0,4,5
106951872,4,0,5
106969548,0,25,5
106988276,1,9,5
107005940,0,0,5
107023636,1,9,5
107041324,1,25,5
107060040,1,1,5
107077716,0,1,5
107095408,1,9,5
107113084,0,225,5
107132836,0,576,5
107152596,9,1,5
107170268,0,324,5
107190036,36,121,5
107210836,49,121,5
107231632,4,121,5
107251396,1,16,5
107270100,4,0,5
107287796,1,64,5
107306528,0,144,5
107326276,1,16,5
107344996,9,0,5
107362676,1,4,5
107380352,0,0,5
107398032,25,16,5
107417796,0,121,5
107437560,0,49,5
107456276,81,9,5
107475000,196,36,5
107495808,36,49,5
107515548,1,64,5
107534260,9,4,5
107551952,0,0,5
107569632,0,0,5
107587316,1,36,5
107606048,4,49,5
107624760,0,4,5
107642444,0,4,5
107660116,0,1,5
107677792,1,16,5
107696512,0,81,5
107715248,4,225,5
107734988,4,81,5
107753712,9,9,5
107771396,4,1,5
107789076,4,0,5
107806768,9,16,5
107825488,25,36,5
107845232,36,49,5
107864992,9,1,5
107882672,1,16,5
107901388,0,0,5
107919080,1,4,5
107936752,1,49,5
107955476,4,64,5
107974196,4,36,5
107992916,1,9,5
108010600,0,4,5
108028288,0,0,5
108045960,1,0,5
108063628,9,0,5
108081316,1,0,5
108098992,1,16,5
108117712,0,0,5
108135392,4,36,5
108154116,0,16,5
108172840,9,0,5
108190512,0,4,5
108208196,0,25,5
108226920,1,4,5
108244588,0,1,5
108262268,0,0,5
108279960,0,4,5
108297636,0,25,5
108316352,4,81,5
108335060,36,25,5
108354844,25,9,5
108373560,0,1,5
108391236,0,1,5
108408916,0,16,5
108427648,1,9,5
108445320,4,9,5
108462988,0,1,5
108480684,4,0,5
108498360,0,196,5
108518116,9,144,5
108537876,9,1,5
108555556,0,100,5
108575312,25,400,5
108596104,36,400,5
108616912,49,225,5
108637728,25,49,5
108657476,4,36,5
108676192,25,441,5
108697004,784,576,5
108718828,1521,36,5
108740676,289,196,5
108762520,4,361,5
108782264,49,100,5
108803076,100,1,5
108822836,36,25,5
108842600,25,25,5
108862356,9,4,5
108880040,16,1,5
108898756,9,4,5
108916444,1,25,5
108935152,16,81,5
108954916,9,0,5
108972596,1,36,5
108991312,9,0,5
109008992,36,16,5
109028764,25,100,5
109049556,16,121,5
109070356,25,16,5
109090120,36,25,5
109109876,1,0,5
109127548,25,25,5
109147316,0,1,5
109164996,1,169,5
109184748,4,225,5
109204524,9,0,5
109222192,9,81,5
109240920,36,529,5
109261712,100,324,5
109283568,36,0,5
109302284,9,1,5
109319948,4,0,5
109337636,16,36,5
109357392,4,25,5
109376112,4,25,5
109394836,4,0,5
109412532,0,4,5
109430200,4,16,5
109448916,9,100,5
109468660,4,36,5
109487400,9,9,5
109505076,0,81,5
109523788,0,81,5
109542528,4,0,5
109560204,1,36,5
109578908,9,49,5
109597628,0,9,5
109615312,0,100,5
109635072,1,196,5
109654828,25,1,5
109673568,9,9,5
109691240,0,1,5
109708904,0,16,5
109727628,0,16,5
109746364,4,36,5
109765076,0,196,5
109784836,9,121,5
109804596,36,4,5
109823324,1,100,5
109843072,9,169,5
109862824,16,49,5
109882612,9,25,5
109901320,4,0,5
109918996,0,25,5
109937720,9,4,5
109955408,9,9,5
109973080,1,9,5
109990760,1,4,5
110008436,0,4,5
110026116,0,49,5
110044836,0,49,5
110063548,0,0,2
110081240,9,0,2
110098904,16,0,2
110117636,0,16,2
110136360,4,9,2
110154036,1,1,2
110171712,0,1,2
110189396,1,4,2
110207084,1,1,2
110224772,0,1,2
110242432,0,4,2
110260108,0,9,2
110277804,1,16,2
110296504,4,49,2
110315228,25,49,2
110335004,25,36,2
110354760,0,25,2
110373480,64,1,2
110392200,49,100,2
110412996,4,49,2
110431704,4,0,2
110449392,9,0,2
110467060,25,1,2
110485792,16,4,2
110504508,0,9,2
110522192,1,81,2
110540924,1,25,2
110559648,49,100,2
110580436,16,196,2
110601232,0,9,2
110618928,4,64,2
110637636,16,49,2
110657396,121,16,2
110678196,196,0,2
110697956,25,1,2
110716684,1,4,2
110734356,1,625,2
110754124,1,196,2
110773876,0,529,2
110793624,4,361,2
110813396,49,25,2
110833152,4,4,2
110850828,1,4,2
110868524,1,4,2
110886200,25,121,2
110906992,36,81,2
110926744,9,9,2
110944440,1,36,2
110963152,16,0,2
110981872,0,49,2
111000596,9,0,2
111018276,121,100,2
111040112,25,144,2
111060908,4,16,2
111079640,0,121,2
111099396,36,81,2
111119156,36,0,2
111137884,9,1,2
111155556,1,4,2
111173232,0,1,2
111190908,0,4,2
111208592,0,100,2
111228352,9,144,2
111248112,9,16,2
111266844,0,49,2
111285564,1,256,2
111305320,1,196,2
111325076,9,16,2
111343796,0,4,2
111361480,1,9,2
111379152,4,0,2
111396824,0,0,2
111414524,4,36,2
111433240,9,64,2
111451948,25,1,2
111470680,25,4,2
111489400,0,0,2
111507080,1,36,2
111525788,4,25,2
111544516,1,1,2
111562188,0,0,2
111579880,0,9,2
111597552,4,4,2
111615240,4,1,2
111632916,0,4,2
111650596,16,16,2
111670356,9,144,2
111690128,4,16,2
111708840,1,9,2
111726512,4,25,2
111745236,1,36,2
111763960,4,1,2
111781628,4,0,2
111799316,0,4,2
111817000,0,9,2
111834680,1,1,2
111852348,0,1,2
111870032,1,0,2
111887716,4,0,2
111905388,1,1,2
111923072,4,1,2
111940756,0,9,2
111958436,1,64,2
111977156,4,16,2
111995872,4,1,2
112013556,0,9,2
112031224,0,36,2
112049956,0,64,2
112068684,4,16,2
112087396,4,1,2
112105068,0,4,2
112122748,1,16,2
112141476,1,4,2
112159156,4,1,2
112176832,1,1,2
112194500,1,0,2
112212196,1,0,2
112229872,0,1,2
112247552,0,0,2
112265232,9,0,2
112282916,25,1,2
112301624,4,49,2
112320356,16,64,2
112340132,16,49,2
112359876,1,25,2
112378592,4,25,2
112397324,1,49,2
112416048,9,1,2
112433716,1,4,2
112451404,0,0,2
112469084,1,1,2
112486760,0,4,2
112504436,0,1,2
112522116,1,4,2
112539792,1,1,2
112557476,25,1,2
112576188,9,16,2
112594920,4,4,2
112612604,0,4,2
112630280,4,0,2
112647948,0,0,2
112665644,4,1,2
112683324,9,9,2
112700996,4,1,2
112718676,0,0,2
112736356,4,4,2
112754040,0,9,2
112771712,9,4,2
112789388,0,0,2
112807080,0,1,2
112824752,1,0,2
112842432,1,0,2
112860108,0,0,2
112877808,4,0,2
112895480,1,1,2
112913152,0,4,2
112930852,1,4,2
112948524,1,0,2
112966196,4,0,2
112983864,0,0,2
113001556,1,0,2
113019236,0,1,2
113036912,0,0,2
113054592,9,1,2
113072292,16,9,2
113090996,4,0,2
113108676,4,0,2
113126348,1,0,2
113144032,0,4,2
113161712,0,1,2
113179396,1,1,2
113197088,0,0,2
113214772,9,0,2
113232440,25,0,2
113251152,81,9,2
113269892,16,1,2
113288608,169,1,2
113308352,100,0,2
113328104,4,1,2
113345800,25,1,2
113364516,0,1,2
113382184,0,16,2
113400916,0,4,2
113418608,1,1,2
113436276,0,1,2
113453960,9,0,2
113471652,9,0,2
113489324,0,1,2
113507000,1,0,2
113524676,4,1,2
113542356,0,1,2
113560028,0,25,2
113578756,4,1,2
113596440,1,0,2
113614116,1,0,2
113631788,1,0,2
113649472,0,9,2
113667160,0,0,2
113684848,1,0,2
113702504,9,0,2
113720196,0,0,2
113737884,4,1,2
113755564,0,1,2
113773232,0,0,2
113790916,1,0,2
113808604,1,9,2
113826268,0,4,2
113843948,0,0,2
113861632,1,0,2
113879312,0,1,2
113897004,4,4,2
113914676,0,0,2
113932352,0,0,2
113950036,0,0,2
113967720,4,1,2
113985400,1,0,2
114003076,0,0,2
114020752,1,0,2
114038436,4,1,2
114056096,0,0,2
114073796,0,0,2
114091476,1,0,2
114109164,0,0,2
114126836,4,0,2
114144520,0,0,2
114162200,0,0,2
114179864,0,0,2
114197560,1,0,2
114215232,1,0,2
114232916,0,0,2
114250592,9,0,2
114268280,16,9,2
114287000,1,1,2
114304672,25,1,2
114323392,1,4,2
114341080,1,0,2
114358756,1,1,2
114376432,1,0,2
114394104,1,0,2
114411796,4,0,2
114429492,1,0,2
114447164,4,0,2
114464844,0,0,2
114482528,1,0,2
114500200,9,0,2
114517876,25,1,2
114536592,16,0,2
114555312,9,0,2
114572996,0,0,2
114590672,0,4,2
114608372,0,4,2
114626040,1,0,2
114643720,0,4,2
114661396,1,4,2
114679080,0,1,2
114696756,25,4,2
114715476,25,0,2
114734204,36,1,2
114752924,1,0,2
114770588,0,1,2
114788268,0,0,2
114805956,4,9,2
114823636,4,16,2
114842356,0,4,2
114860028,1,1,2
114877724,0,0,2
114895400,1,4,2
114913076,0,4,2
114930756,9,4,2
114948444,1,1,2
114966116,49,1,2
114984844,1,1,2
115002536,4,1,2
115020196,81,0,2
115038916,25,1,2
115057632,1,1,2
115075324,0,1,2
115092992,1,0,2
115110680,4,1,2
115128364,0,0,2
115146044,16,0,2
115164764,4,1,2
115182436,0,0,2
115200132,4,0,2
115217796,0,0,2
115235476,9,1,2
115253144,1,0,2
115270836,0,4,2
115288520,1,1,2
115306208,1,0,2
115323880,1,1,2
115341560,25,1,2
115360288,16,1,2
115379000,25,1,2
115397728,4,1,2
115415400,1,0,2
115433076,1,4,2
115450756,0,16,2
115469488,4,1,2
115487148,16,1,2
115505884,4,9,2
115523556,0,1,2
115541232,0,0,2
115558912,1,1,2
115576592,4,1,2
115594284,4,0,2
115611960,0,0,2
115629640,1,1,2
115647320,1,0,2
115665004,9,0,2
115682688,0,0,2
115700356,0,0,2
115718036,1,0,2
115735724,1,0,2
115753400,1,4,2
115771072,0,0,2
115788748,1,0,2
115806440,0,1,2
115824124,1,1,2
115841792,0,0,2
115859480,0,1,2
115877160,1,4,2
115894828,1,0,2
115912516,0,1,2
115930196,0,0,2
115947876,0,1,2
115965548,0,0,2
115983244,9,4,2
116000928,0,0,2
116018596,0,0,2
116036272,1,0,2
116053948,4,4,2
116071640,0,0,2
116089308,0,1,2
116106992,1,0,2
116124684,1,1,2
116142360,4,0,2
116160040,0,0,2
116177708,1,1,2
116195392,0,4,2
116213084,1,0,2
116230752,0,0,2
116248436,1,0,2
116266116,0,1,2
116283804,0,1,2
116301476,0,1,2
116319156,0,0,2
116336848,0,0,2
116354516,1,4,2
116372192,9,25,2
116390920,0,4,2
116408600,0,0,2
116426276,1,1,2
116443960,1,0,2
116461644,0,1,2
116479320,0,0,2
116496996,1,0,2
116514676,0,0,2
116532352,0,1,2
116550044,0,0,2
116567716,4,0,2
116585400,1,0,2
116603088,4,4,2
116620748,0,0,2
116638432,0,1,2
116656104,0,0,2
116673800,0,0,2
116691480,9,1,2
116709156,0,1,2
116726836,1,1,2
116744520,0,0,2
116762208,1,0,2
116779884,0,0,2
116797556,0,4,2
116815232,0,4,2
116832912,1,0,2
116850592,0,9,2
116868284,1,0,2
116885960,0,1,2
116903632,0,0,2
116921316,4,4,2
116939000,0,0,2
116956668,0,0,2
116974344,4,0,2
116992044,9,1,2
117009716,0,0,2
117027392,0,0,2
117045080,1,1,2
117062760,0,1,2
117080452,1,0,2
117098124,0,0,2
117115800,1,4,2
117133468,0,0,2
117151156,9,4,2
117168844,1,0,2
117186512,0,1,2
117204192,4,0,2
117221884,4,1,2
117239556,0,1,2
117257240,0,0,2
117274920,4,0,2
117292596,1,1,2
117310276,0,9,2
117327960,1,0,2
117345636,0,1,2
117363312,0,1,2
117381000,4,0,2
117398684,0,4,2
117416356,0,0,2
117434032,0,0,2
117451700,0,0,2
117469404,1,4,2
117487072,0,0,2
117504756,1,0,2
117522428,0,0,2
117540136,9,4,2
117557804,0,0,2
117575468,0,0,2
117593156,0,1,2
117610840,0,0,2
117628516,4,4,2
117646196,0,4,2
117663884,0,0,2
117681564,0,0,2
117699244,4,1,2
117716912,0,0,2
117734596,0,0,2
117752264,0,0,2
117769952,1,0,2
117787628,0,1,2
117805316,0,0,2
117822992,0,0,2
117840672,0,0,2
117858368,4,1,2
117876036,1,0,2
117893716,4,0,2
117911388,0,0,2
117929088,1,1,2
117946756,0,0,2
117964432,0,0,2
117982112,1,0,2
117999804,4,1,2
118017480,1,0,2
118035164,0,1,2
118052820,0,0,2
118070512,0,0,2
118088188,0,1,2
118105868,0,0,2
118123552,0,0,2
118141240,0,9,2
118158916,0,25,2
118177632,4,1,2
118195320,1,1,2
118212996,0,0,2
118230672,1,0,2
118248352,9,4,2
118266040,0,0,2
118283712,0,4,2
118301396,4,0,2
118319076,1,1,2
118336772,1,0,2
118354436,0,1,2
118372112,0,0,2
118389804,1,1,2
118407484,9,1,2
118425164,1,0,2
118442836,0,0,2
118460524,0,0,2
118478212,4,4,2
118495876,0,0,2
118513556,0,0,2
118531236,1,4,2
118548916,1,4,2
118566592,0,1,2
118584268,0,0,2
118601952,1,0,2
118619640,0,0,2
118637324,1,4,2
118655004,1,0,2
118672676,0,0,2
118690352,0,1,2
118708036,1,1,2
118725720,1,0,2
118743404,0,1,2
118761068,0,1,2
118778752,0,0,2
118796452,1,4,2
118814128,0,0,2
118831792,0,1,2
118849468,0,0,2
118867164,1,1,2
118884836,0,4,2
118902516,0,0,2
118920200,1,0,2
118937892,1,4,2
118955568,1,0,2
118973232,0,0,2
118990916,1,0,2
119008592,0,0,2
119026272,1,1,2
119043952,0,0,2
119061636,0,1,2
119079320,1,0,2
119097000,1,9,2
119114664,0,0,2
119132356,0,0,2
119150024,0,0,2
119167704,0,0,2
119185392,4,1,2
119203080,1,0,2
119220764,1,0,2
119238428,0,0,2
119256124,4,4,2
119273800,0,0,2
119291476,1,0,2
119309152,1,0,2
119326836,9,1,2
119344524,0,1,2
119362192,0,0,2
119379868,0,1,2
119397560,0,1,2
119415236,4,1,2
119432920,0,0,2
119450592,4,0,2
119468272,0,0,2
119485952,4,0,2
119503632,1,0,2
119521316,0,0,2
119538996,4,0,2
119556684,1,0,2
119574360,1,0,2
119592048,0,1,2
119609716,1,0,2
119627384,0,0,2
119645076,1,4,2
119662760,1,0,2
119680428,0,0,2
119698120,1,0,2
119715796,1,9,2
119733488,1,0,2
119751160,0,0,2
119768836,0,0,2
119786512,0,0,2
119804204,4,0,2
119821868,0,9,2
119839556,1,9,2
119857244,1,1,2
119874920,0,0,2
119892604,1,0,2
119910280,0,0,2
119927952,0,0,2
119945636,4,0,2
119963316,0,0,2
119980996,1,0,2
119998676,0,1,2
120016360,0,1,2
120034044,9,1,2
120051704,0,0,2
120069396,1,0,7
120087084,0,0,7
120104760,1,1,7
120122440,0,0,7
120140112,0,1,7
120157788,0,1,7
120175480,0,4,7
120193176,1,0,7
120210844,0,0,7
120228512,0,0,7
120246188,1,1,7
120263880,16,1,7
120282592,1,0,7
120300272,0,0,7
120317944,0,1,7
120335644,0,1,7
120353324,0,1,7
120370992,0,0,7
120388680,0,4,7
120406352,1,0,7
120424036,0,4,7
120441712,1,0,7
120459396,0,0,7
120477076,0,0,7
120494752,0,0,7
120512432,1,0,7
120530116,0,0,7
120547792,4,0,7
120565472,0,0,7
120583140,1,0,7
120600840,1,0,7
120618528,1,0,7
120636200,1,0,7
120653880,4,0,7
120671560,1,0,7
120689240,0,1,7
120706912,0,0,7
120724592,0,0,7
120742288,4,1,7
120759952,0,0,7
120777636,0,1,7
120795316,4,0,7
120812996,16,4,7
120831720,0,0,7
120849384,0,1,7
120867076,0,0,7
120884752,1,0,7
120902432,1,0,7
120920112,0,0,7
120937808,0,1,7
120955484,1,1,7
120973160,4,1,7
120990848,1,0,7
121008516,9,0,7
121026188,0,1,7
121043868,0,1,7
121061560,4,0,7
121079232,0,0,7
121096904,1,0,7
121114588,0,1,7
121132292,4,4,7
121149956,0,1,7
121167640,1,4,7
121185312,4,0,7
121203000,4,0,7
121220676,1,0,7
121238356,1,1,7
121256040,0,1,7
121273724,0,4,7
121291404,0,1,7
121309076,0,0,7
121326752,0,0,7
121344432,1,0,7
121362112,1,0,7
121379780,0,0,7
121397476,0,0,7
121415156,1,1,7
121432840,1,4,7
121450528,1,0,7
121468200,0,0,7
121485868,0,0,7
121503552,0,0,7
121521232,4,0,7
121538912,0,0,7
121556588,0,0,7
121574280,1,0,7
121591968,4,1,7
121609636,4,0,7
121627316,1,0,7
121644988,9,0,7
121662680,1,0,7
121680356,4,1,7
121698032,0,1,7
121715708,0,4,7
121733404,1,0,7
121751088,4,4,7
121768752,0,1,7
121786440,0,0,7
121804112,0,0,7
121821796,4,1,7
121839464,0,0,7
121857164,0,0,7
121874836,0,0,7
121892512,0,0,7
121910200,4,1,7
121927884,1,0,7
121945556,0,0,7
121963232,0,0,7
121980912,9,1,7
121998588,0,0,7
122016280,1,1,7
122033944,4,0,7
122051644,1,1,7
122069328,4,0,7
122086996,1,0,7
122104680,4,1,7
122122356,0,1,7
122140044,1,1,7
122157712,0,0,7
122175388,1,0,7
122193080,1,1,7
122210752,0,0,7
122228440,1,0,7
122246112,0,0,7
122263796,1,1,7
122281476,1,1,7
122299156,0,0,7
122316844,1,1,7
122334512,0,0,7
122352200,0,0,7
122369884,1,4,7
122387560,1,1,7
122405236,0,0,7
122422916,4,0,7
122440596,1,4,7
122458280,0,0,7
122475960,1,1,7
122493640,0,1,7
122511312,9,0,7
122529016,1,1,7
122546680,1,0,7
122564344,0,0,7
122582032,1,0,7
122599728,1,4,7
122617388,1,0,7
122635068,0,1,7
122652756,0,0,7
122670440,0,4,7
122688124,1,0,7
122705800,0,1,7
122723472,0,0,7
122741156,0,0,7
122758836,4,1,7
122776500,0,0,7
122794192,1,0,7
122811876,0,1,7
122829564,1,4,7
122847228,0,0,7
122864916,0,0,7
122882592,0,0,7
122900272,0,0,7
122917964,1,4,7
122935640,0,0,7
122953316,0,1,7
122971000,0,1,7
122988692,4,0,7
123006372,0,0,7
123024036,1,0,7
123041708,0,0,7
123059400,0,0,7
123077076,4,0,7
123094744,0,0,7
123112424,1,0,7
123130128,1,0,7
123147812,4,4,7
123165472,0,1,7
123183156,0,0,7
123200832,1,0,7
123218516,9,1,7
123236196,0,0,7
123253872,0,0,7
123271556,0,0,7
123289248,4,1,7
123306920,1,0,7
123324604,0,0,7
123342264,1,0,7
123359952,0,0,7
123377632,1,1,7
123395324,0,0,7
123412996,1,0,7
123430676,0,0,7
123448372,1,0,7
123466044,0,1,7
123483720,1,1,7
123501388,0,1,7
123519068,0,0,7
123536768,1,1,7
123554436,0,0,7
123572116,0,1,7
123589796,0,0,7
123607484,1,4,7
123625152,0,0,7
123642824,0,0,7
123660516,1,0,7
123678196,0,1,7
123695880,4,0,7
123713552,0,0,7
123731232,0,0,7
123748912,0,0,7
123766592,0,4,7
123784284,4,1,7
123801956,0,0,7
123819636,0,0,7
123837316,0,0,7
123855004,4,1,7
123872684,0,0,7
123890360,1,0,7
123908040,0,1,7
123925736,9,1,7
123943400,0,0,7
123961064,0,0,7
123978740,0,0,7
123996456,1,4,7
124014124,0,0,7
124031796,0,0,7
124049480,0,1,7
124067176,1,4,7
124084840,0,0,7
124102508,0,0,7
124120196,1,0,7
124137880,1,0,7
124155556,1,1,7
124173228,1,0,7
124190912,1,0,7
124208588,1,0,7
124226284,1,1,7
124243952,0,0,7
124261648,1,0,7
124279316,0,1,7
124296996,0,1,7
124314684,1,0,7
124332360,1,0,7
124350032,1,0,7
124367716,0,1,7
124385408,0,1,7
124403080,0,0,7
124420748,0,0,7
124438424,4,0,7
124456112,4,4,7
124473796,0,0,7
124491468,0,1,7
124509148,0,0,7
124526836,0,0,7
124544520,1,0,7
124562200,1,0,7
124579876,0,0,7
124597560,4,0,7
124615236,4,4,7
124632904,0,1,7
124650600,1,1,7
124668280,0,0,7
124685960,1,1,7
124703632,0,0,7
124721328,0,0,7
124738988,0,1,7
124756676,0,1,7
124774364,4,1,7
124792044,0,1,7
124809704,1,0,7
124827396,0,0,7
124845092,4,0,7
124862760,0,0,7
124880428,0,0,7
124898104,0,0,7
124915804,4,1,7
124933480,0,0,7
124951148,0,0,7
124968828,0,1,7
124986520,1,0,7
125004212,1,1,7
125021880,0,0,7
125039552,0,0,7
125057232,0,0,7
125074920,4,1,7
125092596,0,1,7
125110268,0,0,7
125127960,1,1,7
125145652,4,4,7
125163320,1,1,7
125181016,0,0,7
125198672,0,0,7
125216344,0,0,7
125234036,4,4,7
125251720,0,0,7
125269392,0,0,7
125287072,0,0,7
125304756,9,0,7
125322448,1,0,7
125340112,0,0,7
125357796,0,1,7
125375468,0,0,7
125393164,1,1,7
125410840,0,1,7
125428512,1,0,7
125446200,0,0,7
125463888,1,4,7
125481552,0,0,7
125499228,1,0,7
125516916,1,0,7
125534604,1,4,7
125552280,4,0,7
125569948,0,0,7
125587632,0,0,7
125605308,0,0,7
125623004,4,1,7
125640672,0,0,7
125658356,1,0,7
125676024,0,0,7
125693708,0,1,7
125711400,0,0,7
125729084,0,1,7
125746760,1,0,7
125764448,4,4,7
125782124,0,0,7
125799808,0,0,7
125817468,0,1,7
125835152,0,0,7
125852844,1,4,7
125870512,0,1,7
125888192,0,1,7
125905868,0,0,7
125923572,4,0,7
125941244,0,0,7
125958920,0,1,7
125976604,1,0,7
125994276,0,1,7
126011956,1,1,7
126029632,0,0,7
126047320,1,0,7
126065000,0,0,7
126082684,9,1,7
126100360,0,0,7
126118036,0,1,7
126135712,0,0,7
126153400,9,1,7
126171068,0,0,7
126188760,1,0,7
126206432,0,1,7
126224124,1,1,7
126241808,4,1,7
126259480,0,0,7
126277156,0,1,7
126294832,0,0,7
126312524,1,1,7
126330200,0,0,7
126347876,0,0,7
126365560,1,0,7
126383244,1,0,7
126400920,1,0,7
126418600,1,0,7
126436264,0,1,7
126453960,1,0,7
126471636,0,1,7
126489312,1,0,7
126506988,0,4,7
126524680,0,0,7
126542372,4,4,7
126560036,0,0,7
126577716,1,0,7
126595396,0,0,7
126613076,0,1,7
126630756,0,0,7
126648440,0,0,7
126666112,1,0,7
126683792,0,1,7
126701476,0,1,7
126719160,1,0,7
126736840,0,0,7
126754520,1,1,7
126772188,4,4,7
126789880,0,0,7
126807556,0,0,7
126825240,1,0,7
126842936,4,1,7
126860616,0,0,7
126878276,0,0,7
126895948,0,0,7
126913632,0,0,7
126931324,1,4,7
126948996,0,0,7
126966676,0,0,7
126984360,0,0,7
127002044,1,4,7
127019728,1,0,7
127037396,0,0,7
127055076,0,1,7
127072744,0,0,7
127090436,4,1,7
127108116,0,0,7
127125796,0,0,7
127143484,1,0,7
127161168,9,1,7
127178848,0,0,7
127196512,0,0,7
127214192,1,0,7
127231876,1,1,7
127249564,4,0,7
127267232,0,0,7
127284904,4,0,7
127302588,4,0,7
127320292,0,4,7
127337960,1,0,7
127355640,0,0,7
127373312,0,1,7
127390996,4,4,7
127408676,0,0,7
127426352,1,0,7
127444036,4,0,7
127461724,9,0,7
127479404,1,0,7
127497084,1,0,7
127514760,0,1,7
127532436,0,1,7
127550116,16,1,7
127568828,0,1,7
127586512,0,0,7
127604200,0,4,7
127621884,0,1,7
127639564,4,1,7
127657240,0,0,7
127674924,1,0,7
127692592,1,0,7
127710276,4,1,7
127727964,0,1,7
127745636,0,0,7
127763312,0,0,7
127781012,1,0,7
127798692,1,1,7
127816360,0,0,7
127834016,0,0,7
127851712,0,0,7
127869396,4,1,7
127887072,0,0,7
127904748,0,0,7
127922440,1,0,7
127940124,4,0,7
127957796,0,0,7
127975476,0,1,7
127993156,1,0,7
128010832,1,0,7
128028516,0,1,7
128046196,0,1,7
128063876,0,0,7
128081552,0,0,7
128099236,4,0,7
128116916,0,0,7
128134600,0,1,7
128152264,0,0,7
128169948,1,0,7
128187640,1,0,7
128205316,1,0,7
128222984,0,0,7
128240684,1,1,7
128258364,0,1,7
128276048,1,1,7
128293716,0,0,7
128311404,1,0,7
128329088,9,1,7
128346756,0,0,7
128364432,1,0,7
128382116,0,0,7
128399800,1,0,7
128417480,1,0,7
128435144,1,0,7
128452848,0,0,7
128470508,0,0,7
128488196,4,9,7
128505884,0,1,7
128523556,1,0,7
128541228,0,0,7
128558924,4,4,7
128576608,0,0,7
128594280,0,0,7
128611956,1,1,7
128629632,1,0,7
128647324,0,9,7
128665000,1,0,7
128682668,0,0,7
128700344,0,0,7
128718044,4,4,7
128735712,0,0,7
128753396,1,0,7
128771076,0,1,7
128788752,0,4,7
128806440,1,0,7
128824104,0,0,7
128841796,0,0,7
128859488,1,0,7
128877164,1,4,7
128894836,0,0,7
128912516,0,0,7
128930196,0,1,7
128947872,1,4,7
128965548,1,0,7
128983244,0,0,7
129000920,1,0,7
129018604,4,0,7
129036276,0,0,7
129053968,0,0,7
129071648,1,0,7
129089316,0,0,7
129107004,4,4,7
129124672,0,0,7
129142356,1,0,7
129160040,1,1,7
129177720,9,1,7
129195400,0,0,7
129213080,0,0,7
129230744,0,0,7
129248440,0,0,7
129266116,9,1,7
129283780,0,0,7
129301468,4,0,7
129319156,0,0,7
129336844,9,1,7
129354512,0,1,7
129372196,0,4,7
129389876,1,0,7
129407556,1,1,7
129425236,1,0,7
129442924,1,0,7
129460596,1,0,7
129478280,1,0,7
129495972,0,1,7
129513640,0,0,7
129531308,0,0,7
129548996,1,0,7
129566668,4,1,7
129584364,0,0,7
129602036,0,0,7
129619712,0,0,7
129637404,1,0,7
129655080,1,0,7
129672760,0,0,7
129690432,1,0,7
129708112,0,0,7
129725804,4,1,7
129743472,1,0,7
129761156,1,0,7
129778844,0,0,7
129796524,4,1,7
129814196,0,0,7
129831872,1,0,7
129849556,1,0,7
129867236,1,1,7
129884916,0,1,7
129902584,0,0,7
129920272,0,0,7
129937960,0,0,7
129955648,4,1,7
129973328,0,0,7
129991000,0,0,7
130008676,1,1,7
130026356,1,1,7
130044044,0,0,7
130061712,0,0,6
130079388,0,0,6
130097076,1,1,6
130114768,1,0,6
130132436,0,0,6
130150108,1,0,6
130167788,0,0,6
130185480,4,1,6
130203164,0,0,6
130220836,0,0,6
130238524,0,0,6
130256208,1,0,6
130273872,1,1,6
130291552,0,0,6
130309236,0,0,6
130326916,0,0,6
130344592,1,1,6
130362268,0,0,6
130379956,0,0,6
130397632,0,0,6
130415320,4,4,6
130432980,0,0,6
130450672,0,0,6
130468356,1,1,6
130486032,0,0,6
130503724,1,4,6
130521396,0,1,6
130539064,1,0,6
130556760,1,0,6
130574444,1,1,6
130592128,1,0,6
130609788,0,0,6
130627468,0,1,6
130645152,1,4,6
130662836,0,1,6
130680516,0,0,6
130698184,0,1,6
130715884,0,1,6
130733560,1,0,6
130751244,0,1,6
130768916,0,0,6
130786592,0,0,6
130804268,1,1,6
130821952,0,0,6
130839632,0,0,6
130857316,0,0,6
130875008,1,1,6
130892684,1,0,6
130910368,0,0,6
130928036,0,1,6
130945708,0,1,6
130963392,1,4,6
130981072,0,0,6
130998760,1,0,6
131016428,0,0,6
131034120,1,4,6
131051800,1,0,6
131069488,0,0,6
131087156,1,0,6
131104840,0,1,6
131122524,1,0,6
131140196,0,4,6
131157876,1,0,6
131175572,0,1,6
131193256,0,1,6
131210916,1,0,6
131228592,0,1,6
131246272,0,0,6
131263960,1,1,6
131281632,1,0,6
131299300,0,0,6
131316996,0,0,6
131334688,1,0,6
131352364,1,0,6
131370036,0,0,6
131387720,1,0,6
131405396,0,0,6
131423080,4,4,6
131440764,0,0,6
131458440,0,1,6
131476112,0,0,6
131493800,0,4,6
131511488,0,0,6
131529156,1,0,6
131546832,0,1,6
131564512,0,1,6
131582204,4,1,6
131599876,0,0,6
131617556,1,0,6
131635244,1,0,6
131652928,0,1,6
131670612,1,0,6
131688280,0,0,6
131705956,0,0,6
131723636,0,0,6
131741320,4,1,6
131758992,1,0,6
131776676,4,1,6
131794360,4,0,6
131812048,1,1,6
131829712,0,0,6
131847400,0,1,6
131865076,1,0,6
131882764,9,1,6
131900444,0,1,6
131918112,0,0,6
131935796,1,0,6
131953484,0,1,6
131971164,1,4,6
131988844,1,0,6
132006520,0,1,6
132024196,0,0,6
132041880,1,4,6
132059556,0,0,6
132077232,1,0,6
132094908,0,1,6
132112608,0,1,6
132130284,1,0,6
132147956,0,0,6
132165620,0,0,6
132183316,0,0,6
132201016,1,9,6
132218676,0,1,6
132236360,0,1,6
132254044,0,0,6
132271724,1,4,6
132289396,0,0,6
132307092,0,1,6
132324752,0,0,6
132342440,0,1,6
132360112,16,0,6
132378844,121,9,6
132398596,225,9,6
132418360,676,1,6
132438124,81,9,6
132456836,196,4,6
132476592,9,25,6
132495312,121,16,6
132516132,529,64,6
132536920,961,64,6
132557716,441,81,6
132578504,484,0,6
