Timestamp (micros),Sensor1 (mV),Sensor2 (mV)
87306908, 64, 1
48732587197688, 1, 0
487215384, 0, 36
487234104, 9, 25
487252828, 36, 4
487271544, 4, 9
487289216, 0, 0
487306908, 64, 1
48732551612, 10404, 9216
53868, 8649, 3721
56096, 441, 225
58232, 100, 81
60676, 441, 441
78360, 169, 121
96028, 25, 81
111640, 169, 169
130356, 225, 0
146988, 144, 16
164676, 16, 36
181320, 4, 25
196916, 144, 49
214600, 16, 16
231236, 0, 49
246832, 36, 16
263484, 1, 1
278036, 4, 16
293636, 16, 4
309232, 36, 16
325884, 256, 1
342516, 196, 0
359152, 9, 16
374748, 4, 0
389324, 4, 0
403884, 16, 25
420516, 0, 4
435080, 1, 1
449632, 4, 16
465236, 49, 1
480832, 16, 16
497464, 25, 4
513072, 64, 25
529716, 36, 16
546352, 81, 1
561948, 576, 4
578592, 169, 9
595244, 0, 0
609796, 0, 0
624356, 81, 0
639960, 169, 0
656600, 36, 0
672192, 144, 16
689876, 25, 9
705464, 81, 1
721076, 49, 16
737720, 100, 4
754356, 169, 9
770976, 64, 25
787640, 4, 1
802204, 36, 25
818836, 25, 4
834436, 9, 0
849008, 1, 0
863576, 676, 1
880196, 841, 36
897876, 9, 4
912448, 25, 1
928036, 9, 9
942596, 9, 16
958200, 25, 1
973788, 100, 0
990440, 144, 1
1007080, 121, 49
1025788, 81, 25
1043488, 9, 0
1059076, 576, 1
1076760, 361, 9
1094436, 400, 16
1113152, 2209, 49
1132916, 1225, 81
1152676, 0, 0
1168272, 361, 81
1187004, 16, 64
1204664, 324, 16
1223384, 36, 0
1240024, 289, 4
1257720, 289, 0
1275400, 16, 1
1292040, 100, 9
1309720, 400, 1
1327400, 9, 0
1343000, 1024, 0
1361712, 625, 81
1380440, 0, 81
1397088, 225, 9
1414748, 256, 1
1432440, 144, 81
1451152, 1936, 81
1470904, 3136, 25
1490668, 1764, 81
1510432, 1764, 64
1530184, 1369, 81
1549956, 1156, 0
1568672, 1296, 100
1589472, 900, 81
1608188, 196, 64
1626920, 36, 121
1645648, 361, 4
1663324, 36, 16
1680996, 121, 25
1699716, 169, 100
1719484, 36, 169
1738196, 529, 9
1755868, 196, 16
1774576, 625, 324
1794352, 121, 1024
1815144, 2704, 441
1835940, 3136, 676
1856768, 225, 81
1875472, 484, 81
1894188, 576, 0
1911876, 324, 0
1929568, 36, 0
1946196, 1156, 1
1964916, 2116, 144
1985728, 484, 324
2005476, 400, 144
2025236, 324, 9
2042920, 16, 9
2059572, 144, 16
2078256, 289, 289
2098012, 2025, 400
2118832, 841, 100
2138584, 144, 4
2156260, 1521, 25
2176036, 3249, 256
2196848, 121, 25
2215560, 256, 9
2233232, 4, 64
2249876, 1024, 144
2270672, 784, 100
2290440, 36, 121
2309164, 256, 16
2327888, 196, 4
2345560, 225, 4
2363236, 1369, 49
2383004, 729, 36
2401712, 9, 1
2417316, 289, 1
2434992, 729, 4
2452672, 121, 49
2471396, 64, 121
2490108, 121, 25
2508848, 9, 9
2524436, 324, 1
2542116, 1089, 25
2561876, 49, 9
2578532, 121, 225
2598288, 36, 25
2615960, 25, 36
2633620, 64, 25
2651320, 441, 36
2670044, 361, 1
2687720, 0, 64
2704348, 36, 121
2723076, 0, 0
2738672, 625, 9
2756356, 1024, 16
2776132, 196, 0
2793796, 121, 36
2812512, 16, 9
2829148, 484, 121
2848932, 1, 64
2865568, 484, 100
2885312, 441, 144
2905064, 169, 25
2923804, 25, 100
2942516, 9, 144
2960196, 0, 0
2975800, 169, 9
2993480, 81, 1
3010108, 121, 25
3028840, 1, 1
3044448, 25, 0
3061080, 100, 49
3079776, 729, 225
3099548, 144, 64
3118284, 9, 0
3133884, 9, 49
3150500, 16, 121
3169228, 4, 9
3184844, 49, 169
3203552, 4, 144
3221232, 36, 81
3238908, 324, 0
3256600, 100, 100
3276352, 36, 49
3294032, 36, 4
3310684, 1, 16
3327320, 81, 576
3346032, 16, 961
3364752, 1444, 169
3385568, 961, 9
3403232, 0, 1
3418828, 49, 9
3435472, 16, 144
3454192, 0, 100
3471868, 529, 1
3489544, 1369, 0
3508268, 1225, 16
3528044, 625, 16
3546760, 1, 49
3563388, 361, 0
3581084, 841, 9
3598752, 900, 100
3618516, 576, 121
3638264, 625, 16
3657000, 144, 4
3674672, 25, 144
3693392, 81, 16
3711084, 0, 1
3726676, 4, 25
3743308, 0, 49
3759952, 144, 49
3778672, 256, 64
3797396, 361, 16
3816108, 1156, 9
3834836, 100, 100
3854592, 225, 1
3872272, 64, 25
3889964, 49, 4
3906592, 576, 49
3925312, 361, 81
3944024, 16, 49
3961708, 25, 9
3978368, 100, 1
3996044, 4, 0
4011640, 289, 9
4029316, 196, 49
4048056, 1, 1
4063636, 324, 16
4082360, 441, 1
4100028, 25, 0
4116680, 9, 9
4132268, 100, 1
4149948, 4, 0
4165540, 64, 16
4183236, 169, 25
4201956, 16, 9
4218596, 121, 0
4236268, 196, 49
4254996, 100, 49
4273712, 0, 4
4289320, 9, 16
4305960, 144, 9
4323644, 64, 4
4340280, 289, 9
4357952, 16, 1
4374596, 49, 16
4392284, 9, 4
4407876, 4, 0
4423468, 1, 64
4440112, 36, 9
4456752, 144, 0
4474432, 16, 16
4492128, 4, 1
4507728, 9, 4
4523320, 16, 16
4540988, 0, 0
4556596, 1, 16
4573244, 1, 1
4588836, 0, 0
4604440, 16, 4
4621076, 36, 0
4637720, 36, 1
4654364, 36, 1
4671004, 0, 0
4686596, 81, 0
4703220, 49, 49
4720916, 64, 36
4738608, 25, 25
4756272, 225, 25
4775000, 289, 4
4792684, 484, 81
4811392, 1089, 81
4831136, 196, 49
4849872, 81, 0
4866508, 484, 9
4884192, 324, 81
4902900, 36, 0
4919556, 1, 9
4935156, 25, 9
4951796, 100, 4
4969484, 81, 0
4986116, 900, 16
5004840, 1936, 169
5025632, 784, 100
5045404, 169, 25
5064124, 25, 36
5081796, 0, 0
5097388, 49, 25
5115084, 196, 25
5133796, 256, 36
5152516, 100, 25
5171240, 0, 0
5186844, 196, 25
5205552, 225, 16
5224272, 16, 4
5240920, 169, 0
5258596, 121, 0
5276268, 441, 1
5293952, 676, 64
5312680, 9, 36
5329316, 1681, 16
5349068, 400, 49
5367780, 81, 0
5384436, 25, 9
5401080, 1, 1
5416676, 64, 0
5433312, 169, 4
5451012, 9, 0
5466608, 16, 1
5483232, 16, 4
5499876, 9, 0
5515480, 16, 9
5532120, 49, 4
5548756, 121, 1
5566424, 121, 0
5584116, 4, 4
5599708, 121, 16
5618432, 81, 16
5636120, 0, 0
5651716, 169, 1
5669396, 100, 0
5687076, 9, 1
5702680, 1, 0
5718272, 16, 0
5734916, 9, 4
5750512, 169, 0
5768204, 100, 0
5785880, 1, 4
5801480, 1, 1
5817072, 9, 9
5832668, 64, 16
5850360, 225, 9
5868036, 0, 4
5883624, 64, 49
5901308, 169, 9
5919004, 4, 4
5934600, 64, 4
5951236, 36, 25
5968920, 0, 16
5985568, 121, 1
6003244, 169, 9
6020912, 25, 16
6038596, 36, 16
6056276, 81, 9
6072912, 25, 9
6089556, 256, 0
6107244, 100, 4
6124912, 100, 0
6142588, 100, 25
6161312, 144, 9
6179004, 81, 0
6195636, 9, 0
6211236, 0, 16
6227868, 25, 1
6244520, 4, 0
6260112, 25, 16
6277788, 36, 1
6294428, 9, 9
6310052, 0, 1
6325644, 64, 1
6342272, 0, 0
6357876, 121, 4
6375564, 36, 9
6392204, 16, 1
6408836, 121, 1
6426528, 1, 0
6442116, 64, 9
6458760, 9, 1
6474360, 1, 0
6489960, 1, 16
6506608, 1, 4
6522196, 16, 0
6538840, 0, 4
6554436, 1, 1
6570048, 1, 4
6585644, 0, 1
6601240, 1, 4
6616828, 0, 0
6632436, 1, 4
6648048, 49, 4
6664680, 1, 4
6680272, 81, 0
6696900, 0, 0
6712520, 4, 0
6728108, 324, 25
6746824, 361, 25
6765556, 25, 4
6782200, 100, 9
6799876, 144, 9
6817560, 36, 1
6834208, 400, 9
6851888, 100, 81
6870592, 169, 0
6888264, 529, 196
6908040, 16, 81
6925724, 100, 0
6943404, 1, 0
6958992, 9, 9
6974608, 1, 1
6990204, 16, 9
7006840, 9, 0
7022440, 49, 1
7039076, 0, 0
7054688, 225, 9
7072356, 400, 64
7091076, 1, 1
7106676, 64, 4
7123316, 9, 4
7138920, 49, 1
7155564, 1, 9
7171156, 0, 1
7186764, 64, 0
7203400, 49, 1
7220040, 100, 1
7237720, 256, 16
7256448, 1, 4
7272036, 25, 4
7288672, 0, 0
7304284, 1, 1
7319880, 100, 9
7337560, 144, 4
7355236, 36, 4
7371892, 25, 9
7388528, 169, 9
7406188, 100, 25
7424924, 9, 25
7441564, 676, 4
7459248, 1369, 64
7479000, 361, 36
7497716, 4, 9
7513316, 36, 9
7529952, 144, 25
7548672, 400, 16
7567404, 529, 36
7586116, 196, 36
7604828, 16, 0
7621468, 16, 0
7638124, 121, 1
7655800, 121, 25
7674516, 0, 9
7690116, 361, 1
7707808, 841, 36
7726524, 529, 36
7745236, 100, 49
7763944, 25, 9
7780608, 9, 16
7797228, 100, 0
7814912, 529, 49
7833636, 361, 36
7852372, 49, 9
7868996, 144, 4
7886676, 36, 36
7904352, 0, 9
7919956, 0, 1
7935548, 121, 4
7953240, 144, 4
7970920, 0, 1
7986524, 100, 16
8005236, 36, 1
8021880, 49, 0
8038524, 324, 25
8057244, 361, 36
8075952, 16, 4
8092588, 9, 1
8108204, 9, 4
8123804, 9, 4
8139396, 25, 1
8156032, 9, 4
8171632, 9, 0
8187236, 64, 0
8203880, 225, 9
8221556, 64, 4
8238196, 121, 1
8255884, 1, 4
8271488, 121, 1
8289156, 1, 1
8304756, 16, 4
8321408, 16, 9
8338032, 1, 4
8353632, 81, 9
8370284, 9, 0
8385872, 4, 9
8401488, 4, 1
8417068, 36, 25
8434756, 16, 4
8451392, 9, 0
8466992, 36, 0
8483636, 36, 0
8500276, 0, 1
8515876, 4, 0
8531476, 0, 0
8547080, 1, 1
8562660, 0, 0
8578276, 9, 0
8593876, 49, 0
8610504, 16, 1
8627148, 1, 0
8642760, 4, 0
8658364, 64, 1
8674988, 0, 4
8690584, 25, 9
8707236, 16, 1
8723884, 36, 9
8740512, 0, 16
8757148, 36, 1
8773796, 81, 9
8790444, 4, 1
8806032, 196, 0
8823712, 1, 1
8839320, 64, 1
8855956, 100, 9
8873628, 64, 1
8890268, 0, 1
8905892, 49, 0
8922528, 121, 25
8941236, 49, 4
8957868, 9, 0
8973472, 4, 49
8990116, 25, 25
9007796, 81, 0
9024432, 4, 4
9040040, 49, 1
9056688, 576, 1
9074356, 196, 36
9093072, 36, 1
9109724, 225, 16
9128440, 324, 9
9146108, 49, 81
9163792, 0, 81
9180448, 196, 9
9198116, 81, 25
9215800, 121, 1
9233480, 49, 9
9250124, 49, 0
9266756, 144, 9
9284440, 36, 9
9301076, 25, 4
9317724, 16, 1
9334356, 100, 9
9352036, 100, 9
9369720, 144, 4
9387392, 361, 25
9406116, 256, 64
9424824, 25, 0
9441476, 0, 1
9457076, 225, 25
9475792, 324, 36
9494504, 169, 1
9512200, 625, 16
9530916, 225, 9
9548588, 100, 9
9566276, 0, 36
9582928, 81, 1
9599564, 49, 9
9616204, 4, 9
9631796, 16, 0
9648436, 9, 4
9664044, 4, 16
9680676, 0, 4
9696284, 16, 0
9712912, 4, 36
9729564, 25, 1
9746196, 100, 49
9764916, 36, 1
9781560, 0, 36
9798200, 0, 1
9813796, 100, 0
9831484, 324, 1
9849160, 324, 25
9867888, 529, 9
9885568, 169, 36
9904284, 0, 9
9919876, 64, 4
9936524, 4, 36
9953160, 49, 1
9969804, 16, 4
9986448, 1, 4
10002032, 169, 0
10020756, 121, 1
10039488, 49, 4
10057160, 169, 1
10075868, 25, 1
10093560, 9, 1
10110204, 16, 1
10127880, 9, 9
10144524, 121, 16
10164276, 289, 0
10183008, 100, 4
10201708, 9, 1
10218352, 9, 0
10235000, 361, 9
10253716, 484, 0
10272428, 25, 4
10290112, 4, 1
10306756, 256, 0
10325472, 121, 4
10344188, 144, 4
10362920, 324, 49
10382676, 361, 16
10402432, 100, 9
10421148, 64, 16
10439880, 49, 0
10457552, 9, 0
10474196, 4, 9
10490832, 1, 1
10507480, 9, 0
10524116, 0, 0
10540752, 1, 4
10557392, 0, 4
10574040, 36, 0
10591716, 121, 16
10611480, 64, 9
10629160, 49, 1
10646840, 49, 4
10664524, 25, 4
10682196, 25, 1
10699872, 169, 0
10718596, 144, 9
10737316, 0, 1
10753948, 169, 1
10772684, 1, 4
10789312, 16, 0
10807004, 81, 0
10824668, 121, 4
10843400, 0, 1
10860036, 4, 0
10876664, 64, 0
10894360, 0, 4
10910996, 81, 16
10929716, 9, 9
10946348, 49, 0
10964040, 36, 1
10981720, 16, 9
10999384, 0, 0
11016036, 49, 1
11033724, 64, 0
11051404, 81, 9
11069080, 16, 0
11086756, 100, 4
11105476, 36, 16
11124196, 361, 0
11142912, 169, 16
11162680, 100, 9
11181408, 121, 0
11200104, 81, 49
11218832, 225, 64
11238604, 36, 9
11256272, 36, 0
11273952, 0, 1
11290588, 144, 0
11309320, 256, 16
11329072, 169, 4
11347796, 9, 16
11365480, 289, 4
11384200, 729, 4
11402904, 484, 4
11421632, 64, 0
11439320, 0, 9
11455948, 0, 49
11473640, 841, 49
11493396, 361, 144
11514196, 225, 4
11532916, 576, 0
11551632, 784, 0
11570356, 9, 36
11588024, 1225, 100
11609880, 9, 1
11626528, 196, 81
11646276, 16, 4
11663952, 576, 0
11682660, 1764, 196
11704516, 2916, 144
11726356, 841, 25
11746108, 529, 25
11765880, 1369, 196
11787720, 81, 49
11806428, 1296, 121
11828268, 7396, 196
11850100, 1681, 64
11870908, 3721, 9
11890664, 11664, 0
11911468, 6561, 4
11931224, 784, 9
11949952, 1849, 25
11970756, 2704, 196
11992600, 625, 121
12013392, 0, 81
12031072, 196, 81
12050836, 49, 1
12068508, 2704, 0
12088272, 1600, 25
12109088, 64, 1
12126760, 0, 4
12143384, 169, 361
12164196, 64, 16
12182920, 361, 361
12203716, 441, 64
12223460, 256, 196
12244272, 49, 144
12264012, 324, 4356
12285852, 256, 4900
12307716, 1089, 3364
12330564, 1849, 9025
12353448, 1600, 27225
12377384, 625, 18225
12400264, 0, 324
12418984, 324, 625
12439784, 900, 9801
12461616, 576, 20164
12484496, 3025, 9604
12507392, 2304, 6241
12530264, 4, 49
12547932, 1849, 3364
12570836, 3136, 1600
12593712, 1024, 81
12614492, 2304, 1024
12637384, 1521, 3969
12660264, 196, 14884
12683128, 400, 5041
12704980, 784, 16
12724752, 0, 3600
12744512, 16, 0
12762188, 2025, 18225
12786100, 2116, 3481
12808976, 225, 225
12829792, 484, 729
12850596, 1600, 144
12872420, 961, 0
12891148, 14400, 1
12911940, 196, 1296
12933788, 1, 0
12950428, 1521, 361
12972252, 11193, 676
12995116, 27556, 961
13017992, 0, 27225
13038808, 21609, 32761
13063788, 1369, 0
13083532, 81, 0
13101208, 144, 15129
13124120, 196, 0
13142824, 11449, 30976
13167776, 7921, 324
13189608, 1764, 256
13211464, 0, 169
13230180, 21028, 4761
13254088, 2153, 32433
13278004, 21904, 0
13298820, 6084, 1
13318580, 400, 16
13338340, 64, 121
13358096, 49, 16
13376828, 1, 4
13393460, 1521, 0
13413184, 21025, 36
13435060, 0, 3969
13454804, 25600, 5476
13478732, 16, 0
13496420, 100, 0
13515144, 144, 289
13535948, 361, 225
13556748, 49, 9
13574428, 16, 169
13594172, 400, 4
13612888, 8464, 4
13632644, 22201, 1521
13656576, 4624, 1024
13679456, 9, 64
13697140, 121, 9
13715864, 16, 100
13735620, 196, 121
13756428, 25, 1
13774108, 49, 81
13792820, 49, 16
13811560, 1, 0
13828168, 0, 15129
13848992, 12305, 8281
13872876, 13689, 0
13893680, 13225, 0
13914504, 4489, 1
13934260, 36, 49
13952972, 64, 81
13971696, 729, 81
13991468, 4, 4356
14011212, 36, 12321
14033064, 169, 1369
14054904, 576, 4
14073616, 4489, 49
14094408, 17424, 441
14117288, 2500, 676
14139136, 1, 0
14155788, 4, 0
14172428, 16, 16
14191140, 16, 16
14209876, 1, 0
14226488, 0, 23409
14247288, 0, 4900
14267060, 9, 25
14284732, 169, 64
14304508, 1, 25
14322180, 100, 144
14342980, 81, 9
14360664, 4, 225
14379372, 0, 0
14396012, 25921, 0
14416816, 3721, 9
14436584, 144, 49
14456348, 64, 4
14474020, 1, 25
14491704, 49, 64
14510428, 49, 1
14528116, 4, 0
14544716, 0, 25281
14565556, 2308, 8281
14588424, 30625, 5041
14612324, 361, 0
14631056, 225, 26569
14653932, 5625, 1
14673704, 16, 16
14692416, 400, 900
14713212, 841, 529
14734012, 81, 25
14752724, 196, 324
14773544, 196, 25
14793300, 9, 121
14812008, 144, 81
14831788, 4, 25
14849460, 100, 121
14870256, 4489, 4
14890016, 2401, 81
14910808, 5776, 9
14930576, 2209, 361
14952420, 121, 16
14972188, 144, 49
14991944, 121, 1
15010664, 9, 1
15027288, 0, 0
15043936, 24336, 0
15064732, 5041, 1
15084488, 100, 64
15104264, 25, 1
15121952, 16, 49
15140660, 64, 36
15159392, 4, 1
15176012, 0, 0
15192632, 22201, 0
15213456, 5041, 25
15234272, 16, 196
15254028, 49, 4
15271696, 64, 144
15291456, 144, 64
15311228, 1, 9
15327860, 64, 64
15346580, 25, 6724
15367400, 25, 20164
15389204, 1369, 4225
15412100, 729, 0
15430824, 36, 121
15450580, 25, 4
15468260, 49, 144
15488028, 121, 36
15507780, 0, 16
15525452, 0, 22500
15546256, 5089, 0
15566012, 0, 13425
15586820, 0, 0
15603448, 31185, 0
15624244, 7056, 0
15644032, 1028, 961
15665860, 0, 5184
15685592, 0, 22801
15706436, 0, 32400
15727196, 0, 0
15743872, 900, 0
15762568, 0, 11664
15783364, 6825, 3721
15806256, 0, 0
15822888, 23377, 4993
15846800, 20313, 13156
15871764, 2601, 0
15891540, 4624, 196
15913372, 144, 361
15934180, 441, 196
15954996, 64, 4761
15975788, 49, 9801
15996568, 7569, 9025
16019436, 81, 15625
16041288, 2809, 0
16061052, 2601, 49
16081856, 256, 676
16102656, 81, 4
16120340, 196, 729
16141148, 676, 400
16161928, 9216, 784
16183776, 3249, 1
16203540, 169, 0
16222260, 144, 225
16243080, 144, 16
16262820, 0, 100
16281524, 8057, 8100
16304440, 0, 8649
16324188, 5776, 1
16343936, 0, 2304
16363716, 4489, 484
16385532, 4761, 0
16405284, 15876, 18769
16430260, 15625, 169
16453140, 0, 16
16470812, 784, 1444
16492652, 1024, 441
16514476, 0, 29929
16535296, 513, 2064
16557148, 3025, 18225
16581048, 19321, 841
16603952, 0, 22801
16624736, 30625, 16
16646572, 3481, 3969
16669464, 1296, 9
16689228, 1, 361
16707936, 2025, 225
16729772, 1, 36
16747452, 36, 100
16767220, 81, 25
16785952, 0, 36
16803624, 64, 23409
16825456, 144, 6288
16847276, 2401, 11025
16871220, 3025, 0
16890980, 0, 49
16908664, 1, 100
16927380, 144, 169
16948168, 64, 4
16965868, 9, 49
16983540, 2809, 19044
17007452, 4624, 6288
17030336, 484, 16641
17053236, 5776, 484
17075036, 24025, 28224
17100012, 16129, 0
17120828, 11193, 289
17143680, 26896, 18225
17168648, 289, 24336
17191528, 6084, 529
17213344, 0, 26569
17234156, 25281, 0
17254948, 9801, 14400
17278884, 100, 961
17299692, 225, 625
17320492, 961, 625
17341292, 10816, 3364
17365208, 16, 8836
17386008, 3721, 28561
17409932, 2916, 196
17431772, 196, 484
17452572, 24649, 13456
17477516, 5625, 1225
17500408, 9025, 9801
17523292, 0, 0
17539928, 14089, 14073
17564892, 15689, 31876
17589844, 5776, 0
17609616, 9025, 144
17631472, 900, 49
17651228, 1444, 0
17670968, 5184, 196
17692808, 18496, 1024
17716724, 324, 0
17735456, 6400, 0
17755212, 3600, 36
17776020, 81, 49
17794732, 4, 25
17812432, 64, 169
17832184, 1849, 144
17854012, 196, 289
17874828, 9, 1
17891440, 8464, 0
17911180, 18496, 13425
17936168, 16, 3025
17956964, 625, 12100
17979828, 1936, 28900
18003752, 0, 12100
18024572, 0, 5476
18044332, 1089, 961
18066180, 25, 4
18083864, 49, 121
18103620, 64, 9
18121300, 9, 64
18138960, 0, 0
18155604, 22801, 0
18176412, 6084, 100
18198260, 1, 144
18216980, 9, 49
18234672, 121, 144
18255464, 144, 25
18275220, 1, 49
18292900, 100, 49
18312656, 16, 196
18332412, 25, 225
18352196, 256, 361
18372988, 1849, 529
18394816, 625, 36
18414568, 16, 4
18432268, 36, 36
18450984, 9, 0
18467604, 0, 0
18484248, 25281, 0
18505056, 2500, 64
18525860, 9, 100
18544572, 81, 0
18562268, 49, 144
18582024, 169, 64
18601780, 4, 16
18619444, 30976, 64
18641308, 24464, 3969
18665216, 15625, 6241
18689144, 0, 2704
18708900, 121, 3364
18730708, 0, 23104
18751520, 17956, 0
18772340, 1681, 4
18792116, 676, 25
18811856, 5041, 1369
18834732, 24025, 36
18856572, 3969, 2209
18879416, 81, 0
18897140, 484, 29729
18920008, 21904, 14852
18944952, 5041, 0
18964740, 5476, 9
18984500, 4, 576
19003212, 484, 144
19024032, 9, 49
19041700, 196, 225
19062500, 100, 9
19081228, 25, 121
19100988, 144, 64
19120740, 1, 16
19138412, 18496, 1849
19162344, 7905, 7744
19185204, 11449, 3364
19209124, 0, 0
19225772, 9553, 18688
19249680, 20900, 0
19270476, 4900, 26896
19294412, 4096, 1849
19317292, 25, 20449
19339128, 0, 2304
19358888, 0, 13456
19379700, 2209, 196
19401544, 81, 81
19420264, 841, 1
19438988, 324, 144
19459780, 9, 1
19476424, 0, 0
19493052, 17689, 0
19513860, 5476, 1
19533624, 4225, 36
19554408, 14641, 676
19577288, 29584, 1545
19601220, 36, 0
19618892, 0, 1225
19638644, 0, 961
19657364, 5625, 2304
19680244, 729, 36
19700020, 121, 4
19718740, 121, 100
19739540, 36, 1
19757216, 6724, 169
19779044, 26569, 841
19801928, 4489, 676
19823784, 49, 9
19841460, 16, 1
19859140, 0, 1
19875760, 30276, 6084
19899696, 26273, 0
19920480, 11449, 12100
19945436, 0, 1444
19965240, 5089, 5184
19988084, 27556, 30625
20013036, 28224, 3136
20036968, 0, 25668
20057752, 19600, 31684
20082740, 0, 1225
20102504, 1156, 529
20124336, 100, 484
20145144, 484, 361
20165948, 484, 0
20184664, 3136, 0
20204400, 324, 29241
20227288, 0, 0
20243928, 0, 12569
20264744, 11236, 0
20285552, 10201, 32041
20310492, 15129, 21609
20335460, 0, 5753
20355220, 2601, 20736
20379128, 2601, 625
20400956, 21316, 3481
20424908, 1225, 14400
20448816, 24649, 36
20470664, 0, 24649
20491456, 8649, 169
20513304, 1225, 81
20534100, 225, 11449
20556964, 0, 400
20575684, 0, 17956
20596504, 1369, 16
20617304, 196, 36
20637068, 9, 9
20653716, 144, 0
20672408, 961, 25281
20695280, 2809, 0
20715048, 400, 31684
20737932, 36, 484
20757696, 1156, 1
20777456, 9, 529
20796164, 1024, 900
20818016, 361, 4
20836744, 144, 441
20857544, 441, 169
20878348, 1, 81
20896016, 225, 256
20916820, 81, 0
20934496, 17161, 0
20955296, 30276, 2500
20979208, 729, 1089
21001052, 529, 529
21021856, 1369, 64
21042648, 2209, 961
21064476, 0, 0
21081124, 0, 7696
21100896, 4900, 0
21120652, 4225, 121
21142492, 144, 576
21163296, 14161, 196
21186152, 9, 0
21202792, 19321, 18697
21227760, 121, 0
21246488, 1024, 0
21266248, 17689, 1600
21290172, 27225, 676
21313060, 8993, 1764
21335920, 28224, 23716
21360904, 1, 23104
21381692, 4900, 25
21402500, 9, 36
21420184, 100, 529
21440964, 729, 576
21461780, 196, 4
21480504, 100, 256
21501308, 225, 81
21521060, 0, 64
21538728, 144, 144
21559536, 36, 1
21577228, 49, 121
21596980, 81, 36
21615704, 0, 25
21633384, 625, 100
21654168, 4356, 169
21676012, 900, 25
21695792, 49, 4
21713460, 1, 16
21731128, 0, 0
21747772, 23716, 0
21768580, 3721, 196
21790412, 36, 64
21809136, 64, 9
21826828, 4, 64
21844516, 100, 81
21864272, 9216, 121
21886084, 32761, 2025
21910024, 7396, 900
21931872, 3721, 100
21953684, 8281, 0
21973448, 11664, 0
21994252, 3136, 100
22016104, 144, 64
22035872, 64, 4
22053536, 1, 49
22071184, 0, 1024
22090992, 24164, 18225
22115920, 0, 0
22132572, 4225, 25281
22156496, 3481, 169
22178340, 9, 676
22197060, 441, 64
22216828, 4, 196
22235536, 441, 361
22256332, 144, 0
22275056, 81, 196
22294828, 169, 64
22314580, 1, 49
22332260, 121, 100
22353068, 36, 0
22370716, 0, 100
22389444, 30625, 22801
22414404, 16900, 12569
22439360, 1936, 0
22459136, 3481, 144
22480996, 0, 1225
22500752, 1521, 3844
22523596, 0, 20449
22544400, 0, 21025
22565220, 3844, 49
22586012, 256, 100
22606816, 64, 49
22625544, 0, 25
22643228, 100, 64
22662972, 25, 0
22680668, 0, 784
22699376, 0, 25281
22720184, 100, 31329
22743064, 0, 0
22759692, 0, 20548
22780500, 5476, 23865
22804396, 10640, 25281
22829368, 0, 0
22846012, 1444, 196
22867860, 0, 576
22886568, 14089, 7921
22910488, 8993, 0
22930256, 3600, 10640
22954172, 1225, 24464
22978092, 1764, 31684
23002016, 29929, 1028
23025936, 1764, 0
23045680, 14161, 1521
23069612, 0, 16641
23090400, 8057, 0
23110164, 0, 0
23126808, 0, 0
23143444, 6889, 0
23163212, 6561, 9
23182968, 0, 484
23201684, 225, 7396
23223532, 4, 22201
23244336, 2601, 6561
23267216, 625, 0
23285936, 100, 361
23306732, 121, 0
23325464, 64, 225
23345224, 289, 144
23366020, 9, 49
23383692, 144, 121
23404488, 81, 1
23422188, 16, 64
23440908, 81, 36
23459604, 22500, 0
23480404, 0, 25744
23501208, 2809, 4160
23524084, 5041, 15625
23548008, 1936, 0
23567788, 2064, 0
23587524, 0, 625
23606244, 0, 7569
23626024, 25, 4
23643704, 441, 121
23664500, 4, 100
23683216, 256, 225
23704024, 81, 1
23721700, 25, 121
23741460, 121, 36
23761220, 0, 25
23778900, 3136, 14161
23802804, 4489, 0
23822568, 225, 14161
23845452, 1296, 64
23866276, 529, 64
23886024, 1521, 196
23907864, 4761, 0
23927608, 900, 0
23946340, 14884, 6889
23970256, 11193, 0
23991044, 10201, 0
24011864, 4356, 0
24031624, 9, 1024
24051364, 841, 225
24072172, 1, 169
24090904, 441, 484
24111708, 196, 4
24130420, 81, 256
24150188, 256, 100
24170976, 0, 49
24188648, 8649, 576
24210496, 0, 1521
24230256, 7569, 676
24252092, 169, 25
24271856, 49, 49
24290580, 16, 0
24308256, 16, 64
24326996, 81, 0
24344660, 1764, 29584
24368560, 9604, 0
24388328, 4, 31684
24409136, 5929, 196
24430988, 81, 121
24450736, 49, 676
24470480, 1089, 961
24492336, 361, 4
24511056, 144, 400
24531856, 400, 169
24552668, 1, 100
24571376, 225, 225
24592168, 81, 0
24609860, 81, 169
24629628, 144, 49
24649376, 1, 36
24667052, 100, 100
24687864, 25, 0
24705548, 11025, 0
24726320, 20164, 0
24747120, 14161, 0
24767932, 0, 1369
24787688, 10201, 1225
24811620, 196, 9
24830348, 121, 100
24851136, 36, 0
24868816, 25, 100
24888588, 121, 49
24908344, 4, 9
24924964, 0, 32400
24945772, 0, 0
24962404, 2916, 697
24984244, 484, 25744
25007132, 32433, 23104
25032080, 0, 6084
25051848, 4, 529
25070572, 49, 121
25090336, 196, 81
25110104, 16, 1
25127780, 16, 36
25146500, 16, 4
25164180, 0, 3600
25183920, 27889, 4225
25207852, 0, 0
25224508, 21489, 22416
25249440, 7905, 6793
25272332, 3600, 0
25292104, 11881, 225
25315000, 1, 0
25331612, 9, 0
25348260, 400, 400
25369056, 4, 4
25385700, 64, 121
25405456, 12100, 64
25427284, 0, 900
25445988, 12864, 3969
25469932, 17924, 6400
25493856, 25921, 4356
25517764, 0, 0
25534420, 9553, 0
25554188, 10609, 49
25575996, 0, 4160
25595764, 16129, 0
25616572, 2401, 49
25637380, 64, 361
25657128, 576, 361
25677940, 121, 0
25696660, 100, 256
25717460, 196, 64
25737216, 1, 81
25754908, 144, 121
25775700, 36, 0
25793368, 0, 0
25810012, 26569, 0
25830820, 5041, 4
25850580, 256, 9
25869292, 9, 0
25885952, 1, 9
25902572, 30625, 0
25923380, 0, 0
25940008, 14884, 961
25962916, 0, 2401
25982632, 0, 6561
26002400, 0, 0
26019056, 23409, 7569
26042984, 4689, 1156
26065840, 9025, 19600
26089780, 16, 30976
26111604, 5184, 324
26133452, 9801, 0
26153216, 8281, 0
26172968, 6889, 576
26194796, 0, 25921
26215604, 19044, 28900
26240584, 289, 625
26261368, 2500, 900
26283196, 8649, 32400
26307120, 0, 32400
26327932, 0, 841
26346668, 841, 961
26367452, 0, 256
26386168, 400, 441
26406980, 144, 4
26425712, 225, 400
26446504, 361, 100
26467292, 0, 121
26486028, 225, 196
26506816, 64, 0
26524500, 64, 144
26544268, 100, 25
26564024, 0, 36
26581712, 529, 0
26600404, 26896, 28224
26625384, 0, 24464
26646152, 26569, 0
26666964, 6084, 16
26687780, 196, 1
26706496, 1, 64
26724180, 49, 49
26742928, 25, 25
26761596, 0, 144
26780340, 0, 19044
26801120, 15120, 10404
26826096, 23377, 12305
26851048, 19321, 0
26871864, 7225, 1089
26894720, 0, 9409
26914472, 26569, 32761
26939448, 4761, 841
26961296, 196, 324
26982104, 0, 13924
27002904, 0, 1764
27022660, 1764, 400
27044496, 16, 3136
27065296, 196, 9
27084020, 9, 4
27100672, 5929, 0
27120400, 4624, 0
27140192, 4352, 3600
27163044, 26896, 0
27183856, 16, 25600
27205700, 4356, 9
27225460, 0, 100
27244176, 0, 121
27262884, 256, 289
27283696, 169, 25
27303460, 9, 81
27321156, 100, 0
27339860, 961, 29929
27362724, 5625, 0
27382488, 64, 30276
27404336, 5929, 225
27426176, 169, 196
27446972, 49, 676
27466716, 1156, 1156
27489620, 400, 9
27508344, 169, 484
27529136, 529, 196
27549948, 4, 121
27568660, 324, 256
27589452, 100, 0
27608180, 81, 196
27627940, 196, 81
27647700, 1, 36
27665368, 100, 100
27686180, 49, 0
27703860, 25, 64
27722580, 81, 25
27741308, 0, 25
27759004, 36, 0
27776644, 0, 23716
27797436, 0, 5625
27817228, 49, 16
27835936, 100, 9
27854664, 25, 64
27873380, 121, 100
27894184, 25, 0
27911844, 25, 20449
27933688, 49, 0
27951372, 2500, 9604
27974260, 2601, 0
27994012, 9, 100
28012740, 0, 100
28031444, 169, 5041
28053292, 25, 10609
28075144, 324, 1296
28096984, 10404, 4
28117784, 6241, 576
28139612, 15876, 0
28160424, 2116, 12544
28184336, 8649, 441
28206180, 0, 256
28224904, 9, 100
28243620, 64, 36
28262336, 4, 1
28279004, 0, 0
28295596, 0, 24336
28316404, 0, 4761
28336188, 1, 64
28353860, 81, 49
28372584, 0, 9
28389228, 784, 11025
28412092, 289, 0
28430804, 784, 9409
28452648, 1024, 81
28473468, 4, 49
28491140, 36, 9
28508832, 0, 729
28527520, 0, 26569
28548344, 4, 26244
28569120, 0, 29584
28589924, 6889, 8993
28612804, 9216, 0
28632564, 529, 7396
28654408, 5329, 16
28675216, 16, 49
28693936, 441, 676
28714744, 400, 121
28735552, 0, 100
28754260, 196, 121
28775052, 36, 1
28792740, 64, 121
28812512, 81, 25
28831220, 1, 49
28848900, 81, 64
28867616, 0, 0
28884244, 25281, 0
28905052, 5776, 25
28925852, 64, 36
28944588, 0, 36
28962260, 49, 81
28980980, 36, 9
28998676, 0, 400
29017384, 9025, 29584
29041288, 21904, 29729
29066256, 49, 0
29083944, 5476, 25
29104736, 4, 289
29123464, 81, 0
29141144, 64, 169
29160888, 225, 144
29181692, 16, 9
29199388, 81, 121
29219140, 64, 4
29236808, 0, 0
29253444, 26244, 0
29274248, 5184, 0
29294024, 225, 4
29312740, 1, 16
29330420, 9, 16
29348104, 16, 441
29367860, 1, 1089
29387628, 5041, 324
29409456, 16129, 196
29432336, 3600, 2601
29455228, 0, 3249
29474984, 12569, 5625
29498896, 11812, 22080
29523840, 19044, 0
29544660, 7225, 121
29566472, 0, 324
29585212, 24953, 3721
29609132, 0, 0
29625776, 10304, 15689
29650728, 0, 17924
29671524, 8464, 0
29691292, 4624, 169
29713136, 400, 25
29732912, 25, 1
29750580, 0, 16
29768256, 49, 64
29786968, 25, 2500
29807776, 49, 7396
29828572, 100, 225
29849376, 225, 100
29870184, 0, 0
29886832, 5776, 784
29908640, 19600, 3969
29932584, 2601, 1849
29955476, 9604, 81
29976248, 3025, 0
29996024, 9216, 0
30015792, 20164, 28224
30040724, 16, 4352
30061516, 4356, 29584
30085464, 4225, 121
30107288, 0, 0
30123924, 0, 16836
30144732, 4900, 0
30164496, 3969, 324
30186316, 0, 0
30202972, 0, 0
30219608, 9025, 0
30239372, 4356, 576
30261204, 900, 4
30279948, 144, 256
30300740, 324, 121
30321536, 0, 81
30339228, 225, 225
30360020, 81, 1
30377700, 49, 121
30397472, 121, 36
30417220, 0, 25
30434912, 81, 0
30452564, 0, 24336
30473372, 0, 5476
30493140, 81, 4
30510820, 100, 4
30529528, 49, 100
30549300, 144, 81
30569060, 16, 0
30586740, 36, 64
30605476, 0, 32761
30626252, 64, 0
30643924, 24336, 2884
30667856, 26273, 15913
30692804, 6241, 0
30712584, 19728, 1444
30736496, 0, 23409
30757288, 100, 26569
30780172, 3364, 1
30799940, 64, 324
30819704, 9, 121
30838408, 441, 676
30859208, 441, 121
30880016, 1, 121
30898744, 289, 196
30919544, 49, 1
30937224, 81, 144
30956980, 100, 25
30976740, 4, 64
30994424, 400, 22201
31017292, 9, 17985
31038088, 3249, 17424
31062012, 2209, 49
31082832, 4, 256
31101548, 100, 361
31122328, 25, 484
31142096, 576, 729
31162916, 9, 841
31181632, 144, 81
31201368, 21316, 5329
31225272, 4489, 0
31245040, 1600, 21904
31268976, 16900, 2209
31292908, 1369, 100
31314732, 676, 1156
31336600, 441, 729
31357392, 121, 0
31376112, 49, 81
31394840, 13689, 4
31415632, 5929, 1156
31438508, 49, 144
31458240, 27556, 1
31479060, 0, 3721
31498828, 289, 4225
31520660, 1024, 16129
31544596, 196, 2916
31566404, 0, 144
31585112, 29241, 13225
31610088, 324, 4
31628816, 30976, 7396
31652728, 30976, 8836
31676664, 5041, 2209
31699544, 1225, 441
31721372, 11664, 0
31742152, 0, 3136
31761940, 0, 2809
31781700, 4096, 0
31801468, 16641, 2209
31825372, 1521, 1369
31848260, 1444, 2025
31871120, 900, 3136
31892972, 28224, 576
31915852, 21316, 1296
31939792, 81, 36
31958504, 1849, 1
31978256, 7744, 1681
32001156, 4900, 25
32021944, 1936, 256
32043768, 5776, 121
32065624, 361, 676
32086424, 3481, 169
32108264, 256, 16
32128028, 4225, 4
32147784, 4900, 529
32169608, 49, 49
32188332, 6400, 81
32209136, 1156, 784
32230992, 25281, 729
32253848, 0, 1369
32273624, 9604, 2601
32296508, 576, 25
32316272, 1444, 4
32336040, 900, 49
32355776, 2304, 121
32377620, 4761, 2116
32400516, 2116, 5476
32423392, 9604, 25
32444176, 14161, 1156
32468116, 400, 64
32487872, 169, 25
32507624, 784, 225
32528420, 784, 121
32549224, 9604, 529
32571052, 14400, 9216
32594972, 625, 2809
32616836, 196, 400
32637620, 900, 4356
32659480, 9, 441
32678192, 25, 441
32697936, 7225, 576
32719772, 22500, 100
32742648, 26569, 5329
32766572, 5041, 4624
32789444, 225, 400
32810280, 144, 289
32831052, 0, 100
32849772, 0, 2116
32869544, 900, 1
32888256, 11236, 4
32909040, 5476, 3481
32931948, 15376, 784
32954808, 2601, 1764
32977696, 324, 2401
32999552, 15876, 1296
33023460, 3136, 2601
33046340, 36, 1024
33067144, 4761, 36
33087932, 31329, 144
33110832, 6561, 196
33132676, 1600, 100
33154496, 4356, 144
33176344, 16, 625
33196108, 784, 729
33216908, 2209, 121
33238744, 576, 169
33259556, 1, 49
33277228, 324, 2209
33299064, 1600, 3969
33321928, 25, 49
33340664, 961, 2209
33362504, 576, 169
33383308, 49, 25
33402032, 4096, 256
33423864, 3364, 484
33445720, 9, 529
33464424, 144, 144
33485220, 1600, 529
33507056, 676, 625
33527864, 6400, 289
33549708, 16384, 36
33571532, 7744, 529
33593392, 4225, 784
33615236, 5476, 1764
33638100, 15129, 7396
33662032, 81, 25
33680740, 2704, 1849
33703632, 196, 25
33723376, 1024, 4
33743140, 36, 144
33762904, 16, 169
33782656, 225, 9
33801388, 25, 25
33820112, 144, 9
33838828, 0, 49
33856488, 6241, 1764
33879372, 20449, 9216
33903296, 2916, 2500
33926192, 49, 1
33943864, 49, 81
33962576, 1521, 16
33983384, 3481, 225
34005228, 169, 529
34026020, 64, 36
34044740, 81, 64
34063476, 256, 324
34084256, 841, 289
34105052, 1369, 36
34125872, 121, 9
34144588, 8649, 256
34166424, 22500, 2916
34190348, 6561, 441
34212196, 81, 196
34231948, 1024, 4
34251696, 1681, 121
34273548, 36, 36
34292264, 16, 1089
34313060, 676, 324
34333868, 2601, 169
34355688, 625, 441
34376508, 441, 25
34396268, 3136, 169
34418092, 784, 1521
34439940, 361, 441
34460740, 900, 441
34481544, 1, 144
34500264, 1, 49
34517936, 196, 121
34538744, 100, 729
34559552, 441, 324
34580336, 361, 4
34599064, 324, 0
34617784, 25, 0
34635460, 3364, 1600
34658340, 22500, 12544
34683292, 1764, 4356
34706180, 576, 1156
34728032, 2209, 144
34749872, 121, 324
34770664, 961, 361
34791476, 1, 225
34810196, 625, 4
34828900, 64, 49
34847624, 36, 49
34866352, 2916, 289
34888192, 3969, 289
34910024, 1600, 1
34929796, 441, 1
34948516, 81, 0
34966180, 2704, 361
34988020, 16641, 144
35010904, 11664, 121
35033784, 961, 144
35054576, 484, 361
35075388, 4624, 81
35096172, 18769, 841
35119036, 10609, 784
35141960, 625, 64
35161692, 400, 4
35180424, 9, 81
35198100, 0, 729
35216828, 5476, 784
35238656, 24964, 1521
35262584, 4489, 2704
35285472, 1369, 16
35306260, 30625, 9
35327056, 10816, 1521
35350992, 784, 25
35370736, 25, 4
35388440, 289, 144
35409228, 1296, 64
35430012, 729, 225
35450816, 169, 0
35469552, 441, 289
35490344, 1225, 400
35512180, 4, 529
35530904, 81, 676
35550656, 49, 0
35568352, 289, 64
35588120, 49, 49
35606832, 81, 4
35624504, 9801, 196
35646340, 28561, 1600
35670272, 3249, 625
35692096, 64, 36
35710824, 529, 324
35731624, 400, 484
35752428, 25, 121
35772180, 1849, 0
35791940, 2304, 196
35813788, 3844, 900
35835636, 256, 4
35854356, 289, 1024
35876188, 25, 1296
35896988, 324, 289
35917776, 1849, 100
35939628, 361, 324
35960424, 729, 100
35981212, 576, 0
35999944, 121, 49
36019704, 289, 169
36040504, 784, 196
36061316, 784, 1
36080032, 1225, 289
36101844, 4624, 256
36123708, 784, 196
36144512, 361, 64
36164276, 3969, 169
36186092, 14161, 1
36206904, 2025, 169
36228744, 225, 100
36249536, 900, 196
36270344, 1156, 81
36291140, 441, 289
36311948, 961, 196
36332744, 1225, 4
36352504, 0, 0
36369140, 5625, 121
36391004, 1369, 324
36412832, 144, 169
36433616, 1296, 9
36453396, 1225, 36
36474188, 2116, 144
36496016, 11664, 144
36518892, 4096, 0
36538668, 9, 196
36557380, 400, 64
36577140, 121, 100
36597960, 225, 100
36618752, 1444, 1
36638504, 196, 144
36659296, 361, 49
36679060, 169, 64
36698824, 625, 36
36718580, 1764, 64
36739376, 1681, 169
36761224, 169, 4
36779932, 4, 256
36798672, 0, 25
36816352, 441, 9
36835064, 1681, 0
36854824, 2401, 169
36876672, 2916, 529
36898496, 2704, 225
36920348, 1444, 324
36942192, 484, 16
36961944, 2704, 196
36983780, 1225, 1
37003544, 16, 144
37023308, 961, 4
37042024, 324, 169
37062828, 2601, 144
37084656, 324, 9
37103384, 324, 484
37124188, 169, 9
37142900, 576, 36
37162668, 289, 25
37182420, 900, 25
37202192, 529, 1
37220916, 625, 4
37239628, 484, 0
37258352, 400, 121
37279132, 1225, 49
37299944, 9, 9
37316572, 144, 529
37337396, 529, 169
37358184, 576, 441
37378976, 0, 9
37395628, 361, 121
37416420, 3844, 196
37438256, 1936, 529
37460104, 2401, 361
37481948, 2304, 49
37502744, 10000, 2209
37526668, 2401, 256
37548496, 1089, 1521
37571388, 441, 900
37592200, 529, 100
37612984, 1, 484
37631696, 2209, 529
37653540, 3600, 1600
37676424, 529, 2116
37698260, 64, 25
37716968, 784, 1024
37738828, 100, 361
37759620, 3969, 1
37779400, 1369, 4
37799152, 2401, 25
37819940, 81, 49
37838656, 1369, 16
37859464, 16, 225
37879228, 81, 49
37897944, 2401, 841
37919788, 2601, 784
37941644, 484, 121
37962432, 400, 36
37982176, 1764, 64
38002992, 676, 9
38021720, 841, 81
38041476, 25, 100
38061236, 1849, 9
38080992, 1444, 0
38100732, 1296, 361
38122596, 1681, 100
38144428, 1156, 121
38166276, 676, 81
38186036, 324, 1
38204756, 529, 4
38223456, 576, 36
38243224, 4, 9
38259872, 1369, 49
38280668, 676, 441
38301468, 400, 64
38321236, 2601, 81
38342028, 4356, 289
38363864, 1849, 144
38385704, 361, 0
38404432, 25, 9
38422112, 841, 9
38440816, 2116, 100
38462664, 1521, 64
38483476, 144, 0
38502184, 784, 36
38521948, 1024, 25
38542756, 3969, 400
38564584, 1521, 49
38585396, 961, 25
38605156, 361, 25
38624912, 1, 0
38641552, 841, 100
38662364, 5184, 25
38683156, 1521, 100
38704984, 361, 25
38724752, 784, 4
38743464, 400, 49
38763224, 9, 0
38779860, 361, 4
38798592, 2916, 4
38818364, 7744, 676
38840200, 729, 100
38860988, 256, 100
38881788, 121, 9
38900504, 121, 81
38920276, 529, 9
38938996, 36, 49
38957712, 1225, 1
38977460, 1156, 64
38998284, 121, 36
39018020, 3844, 225
39039868, 12544, 784
39062748, 1444, 1089
39085632, 1024, 100
39107468, 1156, 9
39127236, 49, 100
39146984, 225, 0
39165704, 2704, 49
39186516, 121, 4
39205232, 100, 0
39223948, 121, 16
39243708, 36, 1
39261396, 49, 25
39280104, 0, 0
39296744, 1849, 289
39318576, 1521, 1600
39341472, 1849, 36
39362256, 961, 400
39383076, 0, 4
39399712, 0, 81
39417388, 1521, 1
39437144, 0, 169
39455880, 0, 1296
39475628, 4096, 1444
39498508, 5329, 1681
39521380, 16900, 1521
39545304, 6561, 576
39567144, 1, 64
39584816, 5329, 144
39606672, 3969, 121
39628500, 1, 289
39647216, 5476, 225
39669068, 625, 16
39688812, 2304, 729
39710652, 49, 196
39730420, 196, 324
39751208, 361, 64
39770984, 0, 25
39788672, 9, 36
39806356, 0, 144
39825056, 676, 4
39843780, 484, 729
39864592, 1, 121
39883308, 289, 9
39902040, 49, 169
39921792, 289, 169
39942588, 49, 16
39961296, 2209, 225
39983144, 4624, 784
40005000, 16, 169
40024732, 3481, 400
40046580, 4096, 2500
40069476, 49, 676
40089220, 576, 16
40108976, 625, 196
40129792, 144, 25
40149548, 9, 4
40166196, 225, 169
40187004, 1444, 361
40208832, 169, 16
40228580, 121, 9
40247312, 1764, 81
40268108, 2025, 441
40289944, 784, 225
40310752, 25, 9
40328424, 529, 121
40349220, 49, 169
40368976, 0, 25
40386668, 1369, 25
40407460, 1089, 256
40429304, 324, 49
40449072, 169, 16
40468828, 121, 49
40488584, 529, 25
40508332, 289, 144
40529152, 81, 121
40548908, 256, 81
40568664, 784, 16
40588432, 676, 4
40607140, 324, 16
40626920, 289, 81
40646676, 8649, 900
40668504, 8836, 1521
40691384, 1156, 289
40713212, 1600, 144
40735092, 361, 1
40753792, 4, 1225
40773536, 5329, 676
40795400, 9216, 441
40817240, 1369, 361
40839072, 169, 4
40857788, 1, 64
40875476, 1681, 1
40895244, 1024, 256
40917080, 4, 9
40933716, 576, 225
40954512, 1936, 1
40974272, 2704, 16
40995072, 1156, 729
41016912, 225, 25
41036668, 784, 100
41057464, 961, 4
41076196, 1600, 9
41095936, 1369, 64
41116764, 784, 0
41135480, 64, 4
41153152, 0, 81
41170824, 64, 121
41190600, 484, 361
41211400, 324, 4
41230104, 676, 4
41248824, 2500, 49
41269636, 484, 9
41288336, 81, 4
41306024, 484, 1
41324752, 64, 9
41342440, 4, 225
41361156, 49, 441
41380920, 16, 1
41398596, 0, 25
41416272, 400, 25
41436028, 784, 9
41454760, 225, 9
41473476, 1, 4
41490104, 100, 169
41510904, 36, 36
41529636, 784, 49
41549384, 2116, 144
41571228, 16, 484
41590992, 3364, 1
41610740, 2116, 25
41631536, 49, 49
41650264, 5041, 0
41670028, 5476, 4
41689792, 625, 49
41709548, 36, 4
41727244, 36, 36
41745948, 961, 16
41765696, 1681, 169
41787556, 9, 1
41804188, 1369, 36
41824972, 1089, 4
41844752, 16, 1
41862428, 25, 225
41882196, 1, 64
41899872, 49, 4
41917564, 16, 100
41937312, 9, 36
41954988, 64, 9
41972664, 225, 1
41991400, 961, 4
42010116, 16, 144
42029884, 1936, 49
42050684, 5041, 1
42070440, 1444, 81
42091240, 144, 1
42109956, 1, 121
42128676, 144, 100
42149480, 529, 16
42169220, 5929, 289
42191068, 13225, 289
42213952, 6241, 0
42233708, 2025, 121
42255548, 64, 36
42274268, 2025, 961
42296096, 2809, 324
42317952, 1521, 400
42339780, 3136, 16
42360572, 23409, 1764
42384500, 22500, 841
42407372, 2025, 100
42429228, 441, 400
42450020, 4761, 121
42471844, 13924, 16
42493688, 0, 2916
42513460, 17956, 5184
42537376, 841, 676
42558180, 841, 25
42577956, 484, 25
42597712, 676, 324
42618500, 4, 361
42637220, 256, 1936
42659068, 2116, 144
42680884, 26569, 625
42703776, 1545, 961
42725616, 0, 361
42744356, 4, 196
42763056, 12769, 169
42785948, 81, 49
42804652, 2209, 64
42825468, 676, 9
42844192, 900, 81
42863940, 1225, 121
42885788, 8836, 484
42907604, 12544, 1681
42931548, 961, 100
42952332, 1369, 400
42974176, 2500, 49
42994992, 25, 49
43013708, 196, 100
43034508, 121, 16
43054280, 1089, 9
43074036, 3025, 16
43094812, 1369, 9
43114604, 2116, 9
43134348, 4900, 16
43155152, 25, 4
43172804, 4761, 81
43193628, 196, 576
43214420, 324, 4225
43236260, 25, 1024
43257076, 64, 25
43275800, 0, 289
43294496, 1156, 64
43315320, 2116, 4
43335068, 6561, 196
43356900, 21316, 729
43379788, 3969, 1
43399540, 6400, 676
43421368, 8100, 3364
43444264, 9, 0
43460908, 5625, 0
43480644, 10000, 20449
43505604, 30564, 29729
43530564, 9216, 0
43550348, 7396, 289
43572176, 1936, 441
43594024, 1369, 400
43615852, 256, 6889
43637680, 3025, 9216
43660580, 2809, 64
43681392, 49, 0
43699048, 900, 3617
43720896, 19881, 26569
43745844, 4160, 0
43765600, 13456, 0
43786408, 3844, 121
43808252, 169, 1225
43830104, 0, 196
43848832, 0, 961
43867544, 0, 225
43886248, 25281, 4761
43910196, 441, 196
43930992, 0, 10201
43951772, 17424, 0
43972552, 1024, 0
43992340, 441, 22201
44015212, 10816, 8464
44039116, 49, 1521
44059924, 19881, 49
44081764, 0, 12544
44102552, 28900, 3025
44126488, 4, 18225
44147296, 0, 529
44166012, 0, 6241
44185780, 676, 1681
44207640, 1, 1600
44227360, 20164, 0
44248164, 10404, 6569
44272096, 26896, 21025
44297044, 5625, 20736
44320984, 32041, 32144
44345924, 2500, 0
44365684, 3844, 169
44387520, 1156, 4489
44410412, 0, 961
44429136, 19600, 3249
44453056, 256, 6288
44474888, 100, 17956
44497764, 8836, 36
44518592, 121, 5041
44540420, 16384, 2401
44564316, 13225, 2704
44588244, 2401, 13924
44612180, 0, 1369
44631940, 32400, 12996
44656900, 484, 14884
44679776, 19321, 0
44700560, 9604, 0
44720316, 22201, 0
44741136, 1369, 0
44760888, 676, 19044
44783768, 3025, 2809
44806672, 3969, 2601
44829524, 961, 29241
44852412, 5476, 24025
44876336, 2601, 324
44898176, 225, 400
44918992, 13924, 625
44941832, 64, 0
44959512, 10201, 28561
44984488, 4761, 4
45004248, 196, 9
45022980, 81, 144
45042744, 100, 36
45062512, 1, 1
45079144, 19044, 2809
45103032, 0, 16900
45123848, 6889, 6889
45146732, 225, 16
45166496, 64, 4
45184180, 81, 100
45203932, 121, 49
45223704, 1, 25
45241380, 36, 49
45260100, 16, 0
45277792, 0, 11664
45298584, 29328, 0
45319388, 1681, 14884
45343292, 625, 441
45364092, 49, 81
45382820, 49, 169
45402568, 225, 169
45423372, 81, 1
45441060, 25, 64
45459792, 64, 25
45478504, 0, 16
45496172, 0, 0
45512800, 22201, 0
45533612, 5625, 81
45554420, 1, 196
45573144, 36, 25
45591868, 100, 169
45612652, 144, 49
45632412, 0, 25
45650112, 81, 64
45668824, 16, 0
45686476, 0, 31684
45707296, 11812, 0
45728100, 14884, 36
45749924, 225, 9604
45771768, 1, 8649
45791548, 2601, 196
45813380, 81, 36
45832092, 81, 529
45851856, 729, 484
45872660, 121, 4
45891368, 144, 256
45912188, 196, 49
45931936, 1, 81
45949608, 169, 121
45970412, 16, 4
45988108, 64, 100
46007860, 81, 16
46026568, 0, 0
46043196, 27889, 16900
46068164, 5220, 8448
46091044, 21904, 0
46111860, 4900, 9
46131620, 16, 289
46151384, 225, 25
46171144, 0, 64
46188828, 144, 121
46209624, 49, 0
46227312, 36, 3364
46248112, 196, 12100
46270972, 529, 625
46291780, 100, 441
46312592, 9, 9
46329228, 1369, 1
46348972, 3481, 81
46369772, 361, 324
46390576, 16, 4
46408264, 1, 9
46424884, 0, 0
46441536, 21904, 0
46462340, 5329, 36
46483148, 324, 100
46503940, 1225, 25
46524740, 81, 400
46544492, 121, 81
46564256, 4, 16
46581940, 81, 81
46600660, 49, 9
46618340, 4, 49
46636028, 7225, 196
46657848, 28900, 1369
46681776, 5929, 729
46703636, 0, 361
46722340, 25744, 5184
46746224, 25921, 13988
46771212, 0, 25921
46792004, 0, 4900
46811772, 64, 1
46829448, 484, 324
46850264, 25, 16
46868976, 169, 289
46889784, 225, 49
46909544, 4, 81
46927224, 121, 100
46948020, 16, 1
46965700, 49, 81
46984432, 49, 21904
47006236, 196, 8448
47028084, 4096, 15376
47052024, 2401, 4
47071772, 36, 289
47091544, 64, 4
47109216, 121, 289
47130008, 256, 121
47150820, 1, 25
47168492, 121, 121
47189308, 64, 1
47206984, 25, 81
47225700, 64, 36
47244440, 0, 23104
47265220, 529, 19728
47288076, 2809, 13689
47312016, 2401, 121
47333868, 144, 17424
47356724, 0, 529
47375444, 0, 12544
47396248, 1024, 169
47418104, 36, 9
47435788, 9, 25
47453472, 0, 10609
47474264, 8804, 0
47494012, 16384, 28561
47518980, 1600, 3025
47541864, 961, 676
47562664, 0, 81
47580336, 6569, 8464
47603232, 0, 18225
47624036, 3844, 484
47645856, 8281, 441
47667684, 81, 7056
47688504, 9, 289
47707224, 144, 4
47725948, 1, 0
47742560, 0, 29584
47763360, 11057, 32041
47788324, 13924, 12769
47813284, 24025, 0
47834112, 0, 16900
47854880, 0, 11664
47875684, 22801, 15376
47900644, 2704, 484
47922528, 0, 7056
47942240, 15617, 20164
47967204, 0, 7905
47986980, 20736, 0
48007780, 3600, 25
48028576, 576, 49
48048348, 25, 25
48067072, 0, 9
48083704, 9, 4
48100320, 0, 0
48116972, 24649, 0
48137764, 5184, 1
48157540, 121, 36
48177300, 9, 16
48194996, 64, 81
48213716, 484, 0
48232408, 16, 18769
48254264, 1, 1545
48274004, 1296, 12321
48297928, 2025, 64
48318740, 4, 100
48337460, 25, 0
48355140, 16, 100
48374912, 81, 36
48393632, 4, 1
48410248, 0, 0
48426880, 22201, 0
48447700, 5184, 36
48468512, 4, 196
48487220, 49, 16
48505940, 64, 169
48525692, 169, 64
48545464, 1, 25
48563132, 484, 49
48582900, 324, 36
48602660, 25, 121
48622416, 1600, 2209
48645296, 7056, 7921
48668176, 729, 1369
48690032, 400, 3844
48711864, 28561, 13456
48736808, 10000, 28561
48761780, 20900, 0
48782560, 28224, 26569
48807528, 2916, 784
48829372, 16, 49
48848108, 36, 1
48865784, 9, 81
48883456, 121, 100
48904264, 36, 0
48921948, 16, 1936
48942736, 144, 9409
48964568, 361, 1849
48986428, 169, 36
49006180, 4, 16
49023864, 16, 4
49041536, 16384, 225
49064408, 0, 1849
49084160, 8836, 2025
49107056, 25, 4
49124736, 25, 0
49142424, 25, 64
49161136, 8836, 484
49182968, 22801, 5041
49206888, 2809, 2601
49229780, 25, 29241
49251620, 29241, 6084
49275520, 12996, 9025
49299484, 0, 10816
49320260, 30625, 784
49343132, 121, 13456
49366028, 900, 9
49384752, 4, 81
49402424, 1, 49
49420104, 4356, 13225
49444000, 24336, 0
49464812, 841, 7921
49486664, 1936, 49
49507468, 1, 16
49525148, 0, 36
49542820, 25, 16
49561536, 4, 0
49578184, 29241, 22801
49603132, 16833, 0
49623924, 5329, 28561
49647860, 2401, 64
49668668, 169, 14641
49691540, 0, 256
49710264, 31329, 16384
49735208, 729, 324
49756012, 1296, 100
49777860, 9, 144
49796580, 16, 225
49816340, 4, 16
49834024, 81, 25
49852740, 16, 4
49870420, 1, 9
49887040, 0, 0
49903688, 24336, 0
49924500, 4489, 0
49944252, 100, 81
49964016, 49, 0
49981708, 4, 49
49999384, 64, 64
50018116, 25, 0
50035784, 676, 0
50054500, 24649, 25
50076332, 25600, 3721
50100252, 0, 0
50116888, 11057, 11328
50141848, 29328, 0
50162640, 2916, 0
50182420, 5476, 25
50203224, 64, 256
50222980, 169, 25
50242748, 0, 49
50260416, 121, 121
50281224, 36, 0
50298908, 36, 64
50317608, 0, 11025
50338412, 11057, 0
50359192, 15625, 11449
50384180, 625, 441
50404984, 16, 49
50423692, 225, 256
50444508, 144, 25
50464268, 9, 100
50482976, 144, 100
50503788, 16, 4
50521472, 64, 81
50540184, 49, 9
50557864, 4, 529
50576560, 0, 21316
50597384, 14089, 21489
50622324, 14884, 9604
50646268, 2025, 10000
50670156, 0, 13689
50690960, 29241, 0
50711780, 1849, 1
50731544, 36, 121
50751300, 144, 36
50771060, 4, 16
50788748, 64, 81
50807468, 15376, 225
50830320, 0, 3136
50850092, 11881, 1600
50874020, 25, 9
50891688, 225, 64
50911472, 0, 36
50929136, 196, 225
50949932, 100, 9
50968660, 9, 64
50986340, 81, 1296
51007136, 5476, 2500
51030004, 19321, 121
51052900, 5329, 576
51074752, 5776, 729
51096536, 3721, 0
51116360, 10404, 0
51137152, 3364, 1156
51160012, 441, 2209
51181868, 36, 1089
51202660, 100, 36
51222416, 81, 49
51241140, 36, 25
51259864, 4, 1
51276512, 9, 81
51294160, 0, 0
51310816, 25600, 0
51331608, 4761, 9
51351384, 81, 49
51370100, 9, 16
51387780, 25, 64
51406504, 49, 100
51426256, 0, 121
51444992, 0, 16129
51465792, 0, 9540
51485552, 7225, 21609
51509464, 2704, 256
51531300, 196, 25
51551040, 100, 23104
51573912, 13225, 8464
51597868, 256, 5220
51619664, 0, 0
51636300, 0, 11449
51657136, 169, 0
51675856, 1296, 16260
51699776, 2209, 1936
51722656, 784, 11449
51745528, 324, 4624
51767384, 36, 10000
51789208, 784, 9025
51811048, 1936, 100
51832880, 9409, 3721
51855764, 25921, 2209
51879680, 7921, 196
51901520, 9216, 6561
51924428, 2304, 0
51944168, 0, 23716
51964980, 15689, 0
51985788, 3844, 24336
52009704, 29929, 2809
52033620, 784, 18769
52056468, 2025, 0
52076244, 900, 0
52094996, 0, 0
52111608, 11881, 0
52132428, 3364, 16260
52156332, 2064, 24964
52180228, 0, 1600
52199976, 4225, 1
52219736, 49, 1225
52240544, 3249, 3364
52263448, 23104, 10000
52288428, 625, 25
52308192, 9216, 4900
52331060, 100, 784
52351868, 121, 5184
52373712, 441, 8100
52395504, 3633, 5929
52418380, 17424, 841
52441276, 1225, 2401
52464172, 0, 0
52480780, 0, 19145
52501596, 0, 14884
52522420, 1369, 6724
52545284, 784, 7744
52567144, 2916, 289
52588980, 1089, 289
52610820, 1296, 1521
52633688, 0, 0
52650344, 23409, 26273
52675272, 17161, 10089
52700232, 3721, 0
52720000, 2500, 49
52740796, 484, 361
52761584, 2116, 12100
52785540, 31329, 576
52808416, 2809, 676
52830264, 36, 441
52850020, 625, 3364
52871844, 10201, 0
52892640, 81, 4356
52913444, 7921, 8281
52936308, 1156, 49
52957112, 5184, 4
52976872, 144, 256
52997664, 361, 169
53018464, 676, 121
53039272, 36, 1
53056976, 36, 100
53076720, 1, 36
53094388, 361, 9
53113116, 4, 81
53130808, 12996, 169
53153696, 0, 3136
53173432, 289, 5776
53195272, 1225, 0
53215036, 3481, 25
53235832, 2500, 841
53257692, 4, 81
53275352, 121, 9
53294084, 144, 100
53314880, 3969, 196
53336688, 18769, 1156
53360648, 0, 22801
53381464, 1521, 8281
53404336, 36, 1600
53425136, 2116, 196
53446992, 2401, 676
53468828, 5625, 1225
53491688, 11025, 21316
53516636, 1849, 14400
53540564, 3364, 30976
53564500, 4761, 4489
53587384, 64, 4
53605052, 441, 256
53625848, 441, 1681
53647712, 484, 2025
53669532, 5476, 13689
53693436, 1849, 576
53715288, 7056, 7569
53738148, 1024, 100
53760024, 5929, 29584
53783936, 0, 7744
53803708, 1444, 1
53823456, 2304, 36
53844276, 100, 4225
53866096, 3249, 961
53887936, 5929, 4
53907692, 29584, 1225
53931600, 5329, 1936
53954464, 5929, 9025
53977356, 784, 529
53998156, 16900, 2809
54022088, 100, 30976
54044992, 7921, 11664
54068880, 26244, 18225
54093840, 4489, 1156
54116724, 4489, 900
54138568, 0, 18769
54159384, 0, 1
54175992, 676, 0
54194708, 8836, 10404
54218636, 10609, 22801
54243608, 1521, 16641
54267532, 9, 49
54285204, 3969, 7569
54308100, 9216, 31684
54332012, 0, 3844
54351748, 2601, 4096
54374636, 1, 2809
54394384, 2601, 2401
54417268, 3249, 4489
54440172, 16, 1024
54460984, 1849, 4356
54483848, 9409, 625
54505712, 10609, 676
54528576, 16, 0
54546256, 2304, 15120
54570164, 1764, 697
54591996, 12769, 0
54612792, 6241, 3969
54635672, 5184, 121
54657548, 64, 12996
54679380, 256, 256
54700188, 81, 4356
54720976, 7921, 324
54742820, 8836, 484
54764676, 1936, 2304
54787540, 0, 19321
54808344, 4, 3600
54828092, 576, 15376
54850972, 2809, 10201
54874876, 4225, 2401
54897772, 16384, 17956
54922720, 144, 16
54942496, 121, 3249
54964348, 1681, 3600
54987212, 2304, 4356
55010108, 3025, 784
55031920, 6084, 256
55053752, 484, 3136
55075600, 4356, 225
55097460, 900, 0
55116176, 1936, 0
55135932, 3481, 3364
55158828, 529, 0
55177556, 9025, 10609
55201452, 5476, 2304
55224356, 6084, 256
55246176, 3481, 6241
55269028, 21025, 169
55291940, 21904, 196
55314804, 1849, 1600
55337700, 3025, 0
55357452, 17161, 16129
55382432, 0, 3136
55402188, 6084, 169
55424032, 7056, 676
55445848, 9216, 19044
55469760, 2025, 1600
55492636, 64, 3481
55513448, 121, 225
55534244, 6400, 25
55555040, 441, 10816
55577944, 16900, 10816
55602896, 2209, 12321
55626812, 0, 0
55643472, 0, 1545
55663220, 0, 10404
55684016, 625, 256
55704828, 9, 7744
55724588, 400, 17689
55747440, 11236, 0
55768244, 3249, 12544
55792132, 7921, 2809
55815048, 25600, 5184
55838988, 11664, 10816
55863936, 7225, 18769
55887816, 21904, 14641
55912776, 5041, 4624
55935688, 6724, 24025
55959612, 2025, 11025
55983524, 1521, 10201
56007448, 17956, 13924
56032404, 1225, 9409
56055288, 12321, 11881
56080252, 3600, 16
56101056, 361, 1024
56122892, 729, 36
56142656, 2304, 961
56164500, 0, 15876
56185272, 3364, 2704
56208168, 0, 484
56226880, 3969, 19600
56250780, 1681, 1369
56273672, 64, 3844
56294488, 3481, 1089
56317372, 14641, 961
56340252, 9025, 196
56362116, 1, 3025
56381856, 9409, 2500
56404724, 2809, 0
56424504, 3025, 1545
56447360, 19600, 6084
56471268, 20449, 1296
56495236, 0, 0
56511836, 25744, 22080
56536824, 28068, 26880
56561784, 0, 10816
56582592, 676, 8100
56604412, 12996, 9604
56628312, 4096, 1225
56651180, 5476, 0
56670936, 36, 1156
56691752, 625, 1225
56713628, 26569, 19321
56738576, 144, 441
56759376, 4761, 7396
56782264, 1, 1764
56802032, 1296, 1681
56824888, 32761, 24649
56849812, 5625, 7396
56872692, 225, 841
56893532, 32041, 0
56914332, 19881, 3600
56938264, 0, 441
56956996, 7921, 900
56978832, 1444, 3136
57001708, 2025, 5041
57024576, 18496, 5929
57048456, 3600, 5776
57071332, 1936, 484
57093224, 11881, 0
57114004, 81, 13689
57135852, 81, 2401
57156656, 64, 484
57176424, 2401, 3600
57199312, 3721, 1849
57222164, 0, 2025
57241932, 0, 1024
57261692, 900, 6889
57283528, 6889, 21609
57307416, 25600, 5929
57331360, 15876, 3481
57355292, 0, 4096
57375056, 24336, 121
57397940, 2601, 256
57419788, 25, 25
57438508, 2304, 3600
57461384, 2304, 1089
57484252, 0, 29241
57505020, 0, 21904
57525828, 400, 5041
57547652, 1, 6084
57567428, 1024, 3844
57590288, 441, 1296
57612180, 10609, 18496
57637144, 1296, 3481
57660024, 11025, 3721
57683900, 0, 0
57700596, 0, 0
57717212, 26569, 6561
57741128, 7225, 4900
57764024, 1936, 3364
57786856, 15376, 2025
57810820, 196, 1296
57832656, 7225, 21904
57856568, 324, 4900
57878412, 289, 1936
57900260, 9409, 10816
57924136, 28100, 21904
57949096, 11025, 1296
57973056, 0, 0
57989668, 0, 0
58006312, 0, 16129
58027108, 6889, 36
58047888, 1369, 3249
58070812, 5329, 13924
58094740, 6561, 8100
58117616, 1296, 1936
58140488, 4, 26244
58161320, 11881, 1444
58185212, 0, 529
58203908, 19600, 1225
58227824, 256, 4761
58249692, 4624, 441
58271552, 9604, 0
58291292, 3364, 0
58311064, 3025, 5476
58333940, 24025, 484
58356840, 12769, 729
58379708, 11449, 196
58402556, 2304, 0
58422316, 11664, 25921
58447256, 7396, 1024
58470164, 23716, 7396
58494096, 1, 8649
58513860, 441, 4624
58535704, 169, 169
58556520, 1, 2500
58576272, 4761, 900
58598108, 1849, 484
58619932, 121, 11025
58642800, 900, 8100
58664628, 25, 9
58682304, 2209, 36
58703108, 900, 2116
58724952, 16641, 625
58747816, 1936, 841
58769692, 324, 5625
58791528, 27556, 1521
58815440, 12769, 676
58838348, 5329, 961
58860172, 7056, 17956
58884104, 0, 324
58902792, 3844, 121
58924636, 100, 2601
58946452, 1369, 3364
58969368, 18769, 8100
58993288, 3969, 3969
59016164, 23104, 11881
59041132, 8281, 0
59060872, 21025, 20736
59085828, 27225, 1444
59109764, 12769, 24025
59134728, 10201, 2916
59158660, 2500, 3364
59181520, 24025, 225
59204396, 13924, 2704
59228328, 9409, 1444
59251212, 16641, 18769
59276172, 25, 4761
59296984, 3249, 15376
59320892, 0, 19728
59341688, 5776, 2209
59364568, 10000, 1
59385344, 1849, 4225
59408232, 9604, 14161
59432188, 0, 9604
59451944, 0, 22500
59472744, 100, 64
59492516, 529, 784
59513304, 625, 225
59534112, 2704, 961
59555956, 16, 400
59575720, 25, 64
59594428, 16, 225
59614188, 64, 36
59632920, 1024, 441
59654764, 625, 36
59674504, 144, 441
59695312, 49, 3969
59716108, 0, 11881
59736908, 5776, 6241
59759764, 2916, 29929
59783660, 4225, 27225
59807620, 6561, 11025
59831528, 14161, 361
59854412, 3249, 576
59876256, 144, 0
59895000, 3600, 5041
59917864, 29929, 10000
59942788, 4489, 1936
59965680, 4900, 7056
59988576, 30976, 0
60009376, 9409, 900
60031224, 3025, 2025
60054104, 1681, 6084
60076980, 13689, 2601
60100884, 23409, 0
60121692, 18225, 16384
60146664, 400, 11881
60169540, 0, 1225
60189300, 4761, 324
60211136, 676, 361
60231948, 64, 441
60251700, 6889, 2116
60274584, 3721, 1681
60297464, 24025, 1225
60321368, 5329, 1600
60344228, 1, 1681
60363984, 256, 1600
60385824, 0, 6084
60405592, 1296, 1521
60428500, 0, 0
60445104, 13425, 0
60465896, 24025, 17424
60490904, 15376, 15129
60515852, 0, 29584
60536652, 6400, 3136
60559516, 0, 6084
60579304, 27889, 0
60600056, 6084, 900
60621948, 841, 2704
60643732, 2704, 3600
60666648, 6561, 19881
60690588, 11881, 3364
60714504, 0, 2809
60734248, 5329, 1156
60757132, 625, 20164
60780004, 18496, 4225
60803900, 1936, 1089
60826824, 15376, 31329
60851768, 4, 0
60868424, 1681, 4
60888180, 5625, 625
60910028, 576, 6889
60931860, 11664, 3364
60955776, 5625, 0
60975536, 0, 5625
60995304, 7744, 6889
61018172, 17689, 29241
61043100, 441, 81
61062872, 2704, 1521
61085796, 11881, 14884
61110740, 2025, 3481
61133612, 3025, 32400
61157516, 31684, 1225
61181432, 11236, 3969
61205368, 676, 7569
61227220, 1764, 8100
61250088, 19044, 2401
61274020, 100, 225
61294816, 2601, 11025
61318716, 0, 3600
61338472, 3844, 784
61360336, 18769, 1521
61384252, 36, 8100
61405060, 225, 20164
61427944, 19600, 9604
61451856, 11449, 16
61473692, 9409, 6084
61496580, 5929, 1156
61519440, 5184, 2401
61542328, 625, 5929
61564148, 3249, 9801
61587052, 30625, 961
61609928, 1089, 256
61631784, 31684, 676
61654644, 15129, 14161
61679616, 4761, 6561
61702504, 17161, 1156
61726412, 0, 10609
61747228, 3364, 1681
61770108, 3844, 4
61789864, 9025, 400
61811696, 3844, 225
61833540, 14161, 256
61856424, 11449, 1296
61880336, 81, 2601
61901148, 729, 16
61920892, 400, 121
61941684, 1369, 36
61962500, 324, 1
61981220, 25, 484
62000976, 2916, 400
62022832, 3600, 11025
62046748, 1156, 2401
62069632, 49, 36
62088360, 1296, 1764
62111208, 961, 11449
62134112, 1156, 484
62155964, 144, 0
62174660, 400, 4
62193372, 16, 225
62213140, 361, 2025
62234992, 361, 3600
62256824, 9, 196
62275524, 81, 196
62295304, 1, 361
62314012, 16, 1296
62334816, 64, 625
62354592, 36, 225
62374360, 225, 25
62394120, 9, 100
62412816, 361, 900
62433640, 0, 576
62452356, 144, 100
62473140, 0, 784
62491880, 9, 529
62510604, 16, 961
62530356, 144, 961
62551156, 256, 121
62571952, 100, 441
62592752, 121, 0
62611484, 100, 289
62632272, 64, 1024
62653064, 361, 121
62673856, 484, 225
62694660, 4356, 324
62716512, 2809, 4
62736272, 169, 169
62757076, 36, 196
62776832, 4, 0
62793476, 4, 256
62812196, 1, 256
62830912, 121, 841
62851712, 576, 1369
62873544, 400, 4
62892280, 121, 484
62913080, 225, 1296
62934900, 121, 16
62954672, 16, 400
62974436, 0, 1
62991064, 529, 169
63011880, 625, 324
63032680, 64, 64
63051384, 9, 225
63070104, 0, 256
63088844, 16, 36
63107552, 49, 1
63125220, 0, 289
63143956, 1, 144
63162676, 100, 441
63183472, 324, 784
63204268, 289, 16
63224028, 361, 36
63243796, 100, 9
63262500, 81, 529
63282272, 100, 324
63303084, 4, 4
63319716, 441, 729
63340508, 529, 576
63361324, 81, 0
63378992, 1, 441
63397704, 225, 1089
63419548, 324, 144
63440348, 529, 900
63461144, 196, 529
63481948, 81, 36
63500692, 196, 441
63521476, 64, 324
63541228, 4, 9
63557876, 100, 676
63578676, 0, 784
63597388, 196, 100
63618192, 289, 841
63638984, 289, 4489
63660840, 100, 729
63681632, 100, 256
63702440, 0, 49
63720108, 361, 961
63740908, 784, 576
63761728, 900, 4
63780428, 121, 625
63801228, 484, 841
63822036, 361, 121
63842844, 4, 64
63860504, 49, 841
63880280, 1, 256
63898996, 49, 49
63917712, 25, 0
63935392, 1, 49
63953076, 16, 36
63971788, 36, 0
63989472, 484, 324
64010284, 900, 729
64031080, 484, 81
64050832, 361, 1
64069544, 144, 64
64089324, 36, 289
64109080, 0, 1
64125704, 289, 625
64146516, 196, 256
64167320, 0, 16
64184988, 9, 0
64201632, 4, 4
64218264, 400, 1089
64240108, 1225, 1369
64262984, 36, 576
64282764, 100, 361
64303552, 256, 49
64323312, 4, 49
64340984, 900, 256
64361800, 324, 144
64382592, 25, 1
64400264, 81, 441
64420040, 100, 441
64440836, 64, 25
64459548, 441, 100
64480368, 441, 49
64500116, 256, 289
64520908, 676, 0
64539632, 484, 256
64560444, 25, 9
64578116, 64, 225
64597876, 9, 196
64616596, 64, 0
64634284, 4, 9
64650912, 0, 25
64668568, 100, 196
64689388, 121, 1681
64711236, 64, 2025
64732032, 100, 324
64752848, 64, 144
64772588, 49, 49
64791308, 64, 9
64808988, 361, 4
64827720, 25, 36
64846436, 25, 4
64864108, 0, 36
64881792, 0, 0
64898432, 144, 1296
64920268, 225, 1369
64942128, 36, 4
64959800, 529, 361
64980588, 729, 1024
65002428, 144, 576
65023240, 441, 100
65044036, 36, 4
65061712, 4, 9
65078352, 169, 784
65099152, 400, 441
65119952, 16, 49
65138660, 289, 400
65159472, 576, 400
65180276, 1, 169
65198988, 169, 900
65219796, 324, 289
65240604, 196, 1
65259316, 49, 361
65279080, 361, 484
65299884, 36, 225
65319632, 144, 1
65338336, 16, 49
65357084, 0, 49
65374764, 9, 361
65393468, 36, 0
65411164, 49, 9
65428828, 16, 324
65448584, 0, 81
65466260, 121, 25
65486048, 256, 49
65505796, 4, 9
65522424, 0, 9
65539068, 169, 121
65559884, 225, 169
65580680, 49, 4
65598348, 0, 225
65617080, 9, 256
65635800, 4, 729
65654508, 100, 324
65675308, 169, 121
65696104, 9, 784
65714828, 100, 0
65733544, 16, 100
65753320, 16, 4
65770992, 9, 4
65787636, 25, 49
65806356, 1, 49
65824032, 1, 400
65842760, 4, 289
65861476, 0, 25
65879168, 4, 1
65895792, 144, 900
65916596, 256, 289
65937384, 25, 400
65957160, 121, 64
65976916, 1024, 121
65998748, 36, 1369
66019556, 36, 256
66039324, 0, 49
66056992, 400, 225
66077796, 529, 784
66098596, 36, 361
66118360, 4, 4
66134992, 36, 324
66154764, 100, 361
66175556, 144, 4
66194272, 64, 4
66211960, 4, 25
66229632, 81, 36
66248344, 0, 16
66266028, 16, 196
66285792, 144, 225
66306604, 49, 484
66326352, 289, 16
66346120, 25, 64
66364848, 9, 25
66382520, 1, 25
66400188, 16, 0
66417876, 196, 64
66437624, 324, 4
66456356, 484, 1
66475084, 36, 64
66493800, 81, 225
66513560, 1, 25
66531228, 0, 9
66547860, 25, 49
66566592, 9, 1
66583232, 144, 100
66604032, 324, 16
66623804, 36, 121
66643556, 16, 1
66661236, 169, 36
66680992, 36, 4
66698664, 16, 4
66716360, 16, 144
66736104, 9, 196
66754848, 0, 529
66773560, 9, 576
66792268, 1, 16
66809964, 4, 36
66827640, 256, 81
66847388, 361, 1
66866112, 49, 1
66883800, 64, 16
66902520, 36, 196
66922264, 4, 64
66939960, 100, 49
66959724, 49, 16
66978436, 196, 196
66999224, 169, 144
67020044, 9, 0
67036680, 81, 25
67055396, 81, 0
67073088, 16, 16
67091788, 256, 324
67112592, 169, 25
67132340, 81, 4
67150040, 1, 4
67166672, 144, 4
67185404, 529, 225
67206200, 100, 441
67227000, 16, 144
67246752, 25, 49
67265468, 9, 81
67283156, 256, 100
67303964, 256, 256
67324748, 49, 225
67344516, 64, 36
67363236, 64, 0
67380912, 36, 16
67399632, 1, 36
67417324, 9, 16
67434996, 64, 400
67454752, 9, 121
67473484, 36, 36
67492192, 196, 225
67512988, 36, 36
67531696, 64, 100
67551484, 25, 16
67570196, 9, 0
67586836, 0, 49
67604520, 169, 225
67625320, 144, 121
67646116, 0, 4
67662748, 121, 16
67682528, 144, 49
67702272, 4, 36
67719956, 9, 25
67737640, 4, 9
67754280, 169, 729
67775068, 64, 841
67794832, 16, 144
67814608, 361, 1
67833320, 400, 49
67853064, 169, 225
67873872, 36, 9
67891556, 25, 324
67911316, 0, 49
67928992, 4, 25
67946668, 36, 0
67964344, 25, 36
67983076, 9, 256
68001784, 0, 225
68020516, 4, 64
68038204, 1, 4
68054840, 100, 36
68074600, 1, 1
68091240, 1, 49
68108908, 36, 25
68127628, 0, 49
68145320, 25, 16
68164024, 225, 36
68183788, 16, 64
68202520, 64, 1
68220212, 16, 1
68237876, 9, 169
68256596, 9, 36
68274284, 100, 441
68295072, 100, 625
68315876, 100, 36
68335632, 256, 25
68355396, 64, 25
68374116, 25, 64
68392836, 144, 0
68411560, 289, 4
68430276, 121, 144
68451064, 4, 1
68467700, 81, 9
68485400, 4, 16
68503080, 25, 1
68520752, 100, 0
68539476, 144, 16
68559236, 81, 36
68577964, 36, 0
68595628, 4, 9
68612272, 81, 484
68632032, 64, 324
68651796, 4, 49
68669472, 36, 1
68687160, 4, 4
68703792, 16, 36
68722512, 49, 49
68741232, 9, 0
68757876, 16, 25
68776608, 1, 4
68793232, 100, 256
68814032, 196, 144
68834848, 100, 9
68853556, 16, 121
68873316, 100, 144
68894124, 4, 9
68910760, 9, 484
68929468, 1, 225
68948196, 121, 4
68966908, 144, 0
68985636, 0, 16
69003320, 16, 4
69020996, 81, 100
69040760, 36, 100
69060512, 9, 1
69077164, 0, 36
69094836, 256, 36
69114592, 36, 25
69133308, 64, 81
69152044, 9, 49
69169720, 576, 81
69189468, 484, 225
69210284, 1, 4
69226916, 484, 16
69246664, 841, 49
69266432, 169, 0
69285156, 0, 49
69302836, 1, 225
69321548, 49, 576
69341312, 100, 25
69361084, 121, 225
69381880, 225, 169
69402692, 1, 225
69421396, 196, 100
69442192, 256, 36
69461940, 100, 225
69482756, 0, 36
69500456, 4, 36
69518108, 16, 4
69535796, 4, 4
69552444, 100, 144
69573232, 361, 81
69592992, 81, 9
69610684, 9, 1
69627320, 1, 36
69644996, 100, 0
69663708, 49, 25
69682436, 64, 25
69701156, 144, 0
69719872, 576, 1
69738596, 841, 144
69759404, 100, 400
69780192, 1, 9
69796824, 36, 0
69814516, 64, 0
69832200, 144, 1
69850916, 36, 4
69868604, 0, 4
69885244, 1, 36
69902912, 81, 9
69920588, 16, 16
69939316, 1, 4
69955956, 0, 16
69973624, 64, 16
69992360, 9, 1
70009008, 36, 4
70026680, 1, 16
70044356, 0, 9
70060976, 49, 9
70078676, 0, 64
70096356, 1, 36
70114036, 0, 16
70131708, 16, 144
70151488, 9, 1
70168128, 16, 1
70185796, 16, 9
70203464, 81, 25
70222196, 64, 0
70239868, 169, 0
70258596, 16, 9
70276280, 25, 1
70293948, 0, 16
70311636, 0, 49
70329308, 36, 0
70346996, 36, 9
70364668, 0, 0
70381316, 1, 4
70397940, 64, 25
70416684, 49, 4
70434356, 1, 1
70450992, 196, 36
70470760, 289, 4
70489484, 196, 16
70509236, 100, 0
70527940, 0, 16
70545640, 4, 1
70562272, 169, 4
70581008, 169, 1
70599720, 4, 9
70616356, 0, 0
70633000, 4, 16
70650680, 36, 9
70668364, 64, 25
70687084, 4, 36
70704744, 16, 0
70722428, 9, 1
70739076, 25, 36
70757808, 4, 4
70774432, 9, 0
70791068, 64, 36
70809808, 16, 9
70827476, 36, 0
70845152, 36, 9
70862832, 4, 0
70879480, 49, 64
70898200, 25, 4
70915864, 1, 0
70932516, 4, 1
70949164, 49, 121
70968912, 9, 25
70986596, 9, 9
71003232, 4, 0
71019872, 36, 16
71038596, 1, 16
71056276, 4, 1
71072916, 16, 9
71090596, 81, 36
71109316, 25, 0
71127000, 1, 0
71143640, 1, 0
71160272, 0, 25
71177952, 100, 4
71196668, 25, 9
71214352, 4, 9
71231004, 4, 100
71249716, 0, 1
71266364, 1, 0
71283004, 4, 0
71299636, 64, 9
71317316, 1, 36
71335000, 16, 4
71352672, 0, 0
71369316, 64, 81
71388028, 64, 0
71405720, 0, 49
71423404, 9, 16
71441068, 16, 9
71458752, 9, 36
71476440, 9, 4
71493072, 1, 4
71509720, 100, 9
71528436, 25, 9
71546124, 9, 16
71563800, 16, 0
71581476, 81, 0
71599160, 64, 25
71617876, 25, 0
71635544, 0, 4
71652188, 16, 0
71669884, 0, 49
71687564, 64, 0
71705240, 100, 9
71723960, 25, 0
71741644, 25, 0
71759312, 1, 25
71777000, 16, 0
71794672, 25, 16
71813400, 0, 49
71831080, 81, 0
71848756, 64, 36
71867480, 0, 9
71884128, 36, 9
71901804, 100, 4
71920516, 1296, 100
71942348, 3136, 81
71963152, 16900, 400
71986020, 2304, 1156
72008916, 4356, 16
72029696, 1296, 7569
72052580, 676, 9604
72074416, 12544, 11025
72099372, 26569, 6561
72123256, 6889, 0
72143020, 3364, 30625
72166940, 49, 2704
72187768, 0, 676
72206472, 24025, 11025
72231472, 144, 0
72250184, 11881, 0
72270980, 196, 11236
72293848, 0, 32400
72314652, 9801, 23104
72338588, 8448, 225
72360404, 625, 15129
72383280, 196, 2704
72405132, 8836, 1296
72428020, 36, 100
72447764, 1024, 1296
72470652, 1024, 9801
72493540, 1, 3249
72513288, 14641, 15625
72538252, 11236, 1681
72562196, 0, 1764
72581924, 29584, 2601
72605852, 484, 22201
72628728, 6084, 14161
72652628, 17161, 0
72673440, 10201, 0
72694240, 8281, 1024
72717136, 529, 784
72737940, 49, 225
72757692, 729, 961
72778496, 484, 49
72798260, 64, 324
72818020, 441, 225
72838820, 25, 36
72857532, 225, 324
72878344, 144, 16
72898096, 25, 144
72917852, 169, 81
72937616, 9, 16
72955292, 64, 100
72975052, 64, 4
72992740, 13924, 9
73013524, 0, 2304
73033304, 14400, 2025
73057212, 3136, 4
73076984, 81, 196
73096736, 36, 144
73116496, 169, 144
73137300, 49, 1
73154980, 16, 64
73173704, 49, 16
73192424, 2500, 0
73212192, 2025, 400
73234012, 784, 16
73253772, 729, 361
73274588, 49, 16
73293292, 1, 16
73310980, 23716, 4
73331788, 3721, 144
73353608, 0, 3600
73373380, 0, 8836
73393128, 6400, 144
73414972, 784, 5625
73436812, 961, 24336
73459692, 4356, 2916
73482556, 9025, 0
73502344, 11449, 0
73523124, 7569, 7921
73546016, 1936, 576
73567860, 729, 121
73588656, 64, 49
73607388, 81, 25
73626100, 1, 1
73642736, 16, 16
73661460, 9, 0
73678096, 0, 0
73694728, 24649, 0
73715524, 5041, 0
73735304, 121, 49
73755060, 9, 4
73771712, 64, 64
73790428, 400, 4
73809152, 0, 11025
73829936, 0, 23716
73850752, 7056, 289
73872568, 121, 5476
73894424, 400, 25
73914180, 49, 324
73933936, 289, 121
73954732, 4, 49
73972420, 144, 144
73993216, 81, 1
74010912, 3025, 16
74031700, 576, 361
74052492, 4096, 1
74072264, 1369, 784
74094112, 64, 4
74111792, 3481, 4
74131552, 2401, 900
74153372, 784, 1
74172116, 1849, 625
74193944, 961, 9
74212660, 36, 4
74230348, 0, 6724
74250092, 0, 0
74266732, 0, 0
74283360, 9604, 0
74303132, 7056, 4
74322888, 324, 25
74342664, 100, 169
74363448, 49, 16
74382180, 0, 16
74399868, 25, 16
74418604, 1, 0
74435200, 0, 16129
74455996, 0, 6084
74475780, 0, 4
74492428, 196, 49
74512184, 0, 25
74529860, 7225, 4096
74552716, 14161, 24964
74577688, 729, 7225
74599552, 0, 30976
74620320, 27889, 14161
74645296, 1369, 3249
74668196, 49, 29929
74690016, 10000, 14641
74714968, 1444, 1296
74737876, 30276, 3364
74761764, 19881, 25281
74786744, 19881, 0
74807556, 4096, 6241
74830412, 21025, 0
74851204, 8649, 0
74870976, 8464, 121
74892816, 81, 64
74911544, 16, 1
74929232, 6561, 100
74951048, 22500, 576
74973936, 3364, 841
74995792, 9, 4
75012420, 9, 0
75029064, 0, 144
75047776, 0, 49
75065452, 0, 31329
75086240, 30625, 32400
75111200, 11193, 0
75132008, 28561, 0
75152812, 7225, 289
75174644, 1, 169
75193380, 4, 100
75212104, 196, 225
75232900, 121, 9
75251620, 16, 64
75270348, 100, 49
75290100, 1, 9
75306748, 0, 32400
75327560, 0, 0
75344176, 289, 0
75362888, 1369, 30625
75386820, 6084, 7921
75409688, 0, 3969
75429456, 0, 27556
75450236, 26896, 5625
75474180, 9409, 1444
75497076, 0, 16129
75517852, 0, 3600
75537632, 2809, 36
75558428, 1600, 5625
75581296, 900, 3844
75603144, 49, 676
75622900, 81, 100
75642656, 121, 81
75662420, 36, 4
75680104, 4, 16
75697784, 25, 6561
75718568, 100, 23409
75741452, 1225, 4761
75764344, 729, 9
75783056, 4, 100
75801780, 5625, 49
75822560, 17956, 289
75845448, 13456, 1444
75869360, 6241, 0
75889140, 0, 0
75905768, 12321, 0
75926592, 8836, 16833
75950488, 12864, 3721
75974408, 31684, 0
75995228, 0, 256
76013940, 0, 7396
76033688, 196, 81
76053440, 9216, 1849
76076348, 27225, 6400
76100232, 23104, 7225
76124176, 49, 30276
76146028, 400, 8836
76167856, 0, 3136
76187612, 15129, 0
76208412, 256, 11664
76231288, 900, 400
76252084, 961, 9
76270824, 225, 289
76291620, 289, 100
76312420, 0, 64
76330100, 144, 121
76350896, 36, 0
76368584, 9604, 400
76390392, 0, 1156
76410188, 0, 4225
76429936, 0, 7921
76449692, 16129, 3600
76473612, 28224, 676
76496492, 0, 0
76513124, 0, 0
76529760, 4489, 21609
76553692, 3721, 1
76573464, 4096, 1
76593216, 14884, 729
76616100, 31329, 1521
76639988, 256, 0
76658728, 4624, 0
76678500, 4096, 16
76699300, 64, 25
76718012, 64, 100
76737780, 784, 196
76758580, 12100, 3364
76782488, 2916, 13924
76806416, 27889, 13425
76831352, 7056, 0
76851128, 8281, 169
76872956, 100, 0
76891704, 0, 0
76908336, 0, 2916
76928108, 8649, 4489
76950972, 7921, 144
76972820, 8836, 1936
76995708, 2704, 4356
77018584, 3025, 2209
77041440, 8100, 8649
77064336, 16129, 15625
77089292, 625, 2116
77111120, 6084, 24649
77135060, 9604, 15625
77158964, 22201, 7569
77182868, 24649, 8281
77206832, 9025, 0
77226580, 900, 0
77245288, 4096, 576
77267156, 1764, 4
77286892, 13225, 1369
77310808, 14641, 25
77332656, 1444, 5041
77355548, 1681, 6241
77378396, 32041, 32400
77403368, 16900, 0
77424188, 22801, 0
77444972, 1024, 0
77464752, 5184, 36
77485544, 1681, 25
77506332, 8464, 7569
77529208, 2401, 21904
77553132, 0, 24649
77573932, 15876, 14884
77598888, 2209, 0
77618660, 1600, 0
77638396, 4356, 18225
77662344, 11881, 4096
77686244, 0, 19600
77707040, 10201, 1369
77730976, 11236, 3481
77754896, 841, 0
77773616, 2116, 16260
77797524, 4225, 0
77817308, 16, 29929
77839132, 1156, 3136
77862016, 5329, 64
77882792, 10404, 0
77903604, 7744, 0
77923372, 8993, 4356
77946264, 14161, 16384
77971224, 13456, 7569
77995152, 9604, 1028
78018012, 12996, 324
78040888, 196, 7056
78062748, 16, 0
78080424, 3721, 17924
78104352, 2916, 0
78124100, 0, 0
78140736, 13425, 784
78163620, 25600, 30625
78188576, 0, 1
78205204, 0, 13456
78226028, 17689, 676
78248876, 28561, 7056
78272808, 1764, 13225
78296724, 0, 20736
78317528, 0, 0
78334184, 19600, 49
78356028, 25065, 5184
78379924, 20449, 81
78401780, 1, 2025
78421520, 0, 841
78440252, 0, 6561
78460004, 24649, 2500
78483916, 0, 25600
78504752, 22080, 8281
78528656, 24025, 441
78551532, 7225, 2601
78574424, 0, 25281
78595224, 0, 7921
78614976, 1225, 20736
78638880, 400, 25600
78661776, 9, 4900
78681540, 900, 100
78702348, 144, 30625
78725232, 100, 9801
78747056, 27556, 64
78768884, 28561, 5625
78792840, 7396, 196
78814644, 784, 23409
78837524, 1849, 17161
78861456, 6561, 4096
78884332, 0, 24025
78905140, 0, 17689
78925944, 11025, 36
78947768, 11025, 121
78970652, 256, 4
78989380, 289, 529
79010188, 361, 121
79030988, 4, 1
79047600, 324, 1600
79069460, 9, 121
79088180, 16, 169
79107940, 144, 25
79127700, 1, 36
79145392, 2916, 9
79165152, 3600, 144
79186992, 4, 256
79205712, 64, 100
79225464, 1, 9
79242112, 0, 13689
79262896, 18564, 0
79283692, 324, 3721
79305536, 6889, 1024
79328428, 64, 289
79348168, 196, 289
79368964, 400, 196
79389784, 25, 25
79408512, 144, 225
79429300, 144, 16
79449056, 9, 81
79466744, 121, 81
79486500, 9, 4
79503148, 11025, 3600
79527044, 0, 12321
79547848, 5329, 3844
79570752, 529, 400
79591532, 16, 24336
79613376, 0, 22201
79634172, 0, 361
79652908, 10000, 5929
79676812, 0, 14161
79697612, 6241, 3600
79720520, 961, 289
79741320, 256, 9801
79763144, 24336, 81
79784964, 21025, 13225
79809940, 1024, 64
79830728, 100, 4624
79852588, 0, 5476
79872352, 0, 0
79888952, 0, 23409
79909756, 26244, 0
79930568, 1936, 3844
79953460, 0, 4761
79973228, 27225, 17424
79998188, 1156, 81
80018980, 169, 144
80039788, 225, 36
80059544, 9, 144
80078256, 256, 225
80099048, 64, 0
80116744, 49, 121
80136500, 121, 25
80156264, 0, 36
80173936, 81, 64
80192684, 16, 1764
80213460, 100, 7569
80235304, 100, 841
80256104, 225, 25
80275876, 25, 1
80293552, 4, 6724
80313288, 81, 21904
80335132, 900, 3844
80356984, 729, 9
80375692, 0, 25
80393384, 1, 4
80410032, 625, 32761
80432892, 2116, 12305
80456808, 1225, 3600
80479704, 2304, 15876
80503612, 0, 2704
80523364, 23716, 23409
80548340, 4096, 1
80568092, 49, 1681
80588904, 0, 1296
80608664, 21028, 4761
80632588, 3617, 23268
80656480, 21025, 0
80677296, 5929, 25
80698104, 121, 0
80716824, 36, 144
80736576, 121, 81
80756336, 16, 0
80774024, 9, 25
80791708, 16, 4
80809364, 0, 25281
80830176, 11057, 0
80850992, 14884, 2500
80874892, 400, 7744
80896728, 36, 5476
80917548, 2025, 196
80939396, 100, 9801
80961220, 0, 576
80979952, 0, 15625
81000744, 0, 11449
81021532, 13225, 19321
81046476, 32761, 14400
81071448, 20313, 0
81092264, 25600, 11193
81117216, 64, 2601
81138024, 9, 784
81156740, 289, 1
81175452, 1, 9
81192096, 49, 36
81210820, 3600, 8100
81233680, 11881, 32041
81258680, 576, 0
81277364, 2025, 0
81297124, 2916, 9025
81320028, 24964, 21904
81344968, 400, 4096
81366804, 13225, 7225
81390748, 0, 0
81407364, 0, 0
81424016, 7744, 0
81443764, 3364, 484
81465620, 484, 81
81485372, 289, 324
81506172, 225, 25
81525952, 36, 196
81545696, 256, 169
81566504, 16, 16
81585220, 121, 144
81606016, 100, 5929
81627868, 14884, 25
81649720, 3969, 31329
81673608, 2116, 19728
81697520, 1296, 31684
81721468, 15625, 529
81744336, 10609, 19321
81769280, 5329, 0
81789052, 15376, 0
81809848, 11449, 0
81830668, 20736, 1156
81854560, 4489, 0
81874328, 49, 0
81892016, 1764, 400
81913868, 81, 13225
81935696, 361, 25281
81958584, 2116, 9604
81981472, 169, 1521
82003324, 16, 1521
82024108, 25, 2209
82044904, 49, 64
82063640, 4, 25
82081324, 1, 4
82097940, 225, 17161
82120820, 18496, 8464
82144720, 0, 0
82161352, 29241, 25281
82186340, 17161, 4356
82210260, 6724, 1849
82233120, 15129, 13225
82258100, 0, 0
82274720, 0, 0
82291384, 6889, 0
82311108, 10089, 121
82334028, 0, 5329
82353776, 31684, 3844
82377680, 0, 21904
82398504, 30976, 12321
82423464, 0, 121
82442160, 0, 576
82460908, 0, 7225
82480656, 8464, 256
82502496, 576, 324
82523300, 144, 36
82543064, 4900, 576
82564904, 6400, 4
82584656, 11193, 441
82607540, 16833, 30976
82632480, 4096, 2601
82655388, 6889, 11236
82679316, 0, 26896
82700096, 22201, 21025
82725056, 19044, 784
82747944, 144, 20449
82770812, 1, 8649
82790592, 2025, 4761
82813456, 36, 4225
82834268, 441, 3364
82856120, 400, 5476
82877936, 11025, 1521
82901852, 4225, 8649
82924724, 2704, 7921
82947616, 16641, 6400
82971524, 25, 6561
82992324, 20449, 5476
83016264, 400, 5041
83038096, 8649, 49
83058904, 8100, 2209
83081780, 900, 36
83101540, 4900, 400
83123384, 3249, 144
83145228, 3136, 12321
83169136, 15376, 1521
83193060, 12321, 24964
83218012, 32761, 0
83238808, 7569, 23409
83262744, 15876, 1225
83286652, 196, 13689
83309532, 1521, 5625
83332412, 2601, 49
83353224, 5184, 961
83375052, 3364, 8464
83397936, 8100, 1024
83420800, 11236, 2809
83444728, 15376, 17424
83469704, 64, 1764
83490500, 3136, 6400
83513384, 144, 1089
83535236, 15625, 10816
83560184, 16, 841
83579944, 3600, 14884
83603868, 1521, 1089
83626724, 7225, 11881
83650660, 4, 6724
83670432, 8649, 2304
83693316, 21609, 100
83716176, 11025, 12769
83741144, 25, 1024
83761932, 2116, 7396
83784824, 7744, 4624
83807700, 2500, 16
83828504, 169, 3844
83850320, 13924, 1296
83874264, 9, 26244
83895064, 841, 6241
83916916, 121, 64
83936676, 3136, 676
83958516, 81, 2704
83979324, 2116, 1849
84002200, 625, 529
84022984, 21316, 576
84045868, 1600, 4900
84068732, 18769, 7921
84092672, 1, 289
84111376, 8100, 121
84133200, 13689, 2116
84157148, 1, 0
84173776, 15129, 2064
84197700, 3721, 0
84217468, 1296, 19881
84241380, 1521, 676
84263224, 1024, 5041
84286104, 3025, 5776
84308972, 1369, 12100
84332896, 1936, 3844
84355764, 14161, 15129
84380736, 21316, 29929
84405696, 1369, 8281
84428576, 900, 4900
84450444, 676, 49
84470168, 13456, 144
84493064, 10609, 11881
84518032, 27556, 900
84540908, 25, 1444
84561704, 361, 1024
84583544, 14400, 1764
84607452, 5329, 144
84629308, 16, 289
84649064, 11025, 4096
84672976, 5929, 1600
84695860, 5625, 121
84717716, 529, 361
84738504, 2916, 100
84760340, 2601, 1156
84783228, 17161, 1369
84807132, 5184, 1296
84830012, 841, 841
84850820, 8649, 10609
84874740, 576, 1444
84896576, 2304, 8100
84919460, 1681, 1849
84942336, 400, 8836
84964176, 3136, 841
84986036, 196, 4225
85007864, 10000, 100
85030744, 784, 1156
85052592, 0, 4096
85072344, 2704, 1369
85095220, 4489, 225
85117072, 1521, 256
85138908, 49, 1089
85159700, 256, 2500
85181544, 8100, 400
85203368, 10609, 36
85225212, 9409, 144
85247064, 7056, 81
85267856, 2704, 0
85287616, 144, 1369
85309476, 5041, 400
85331300, 1225, 441
85353132, 144, 2209
85374992, 196, 4096
85396824, 324, 36
85416580, 625, 2025
85438428, 1849, 5041
85461320, 625, 1089
85483144, 1024, 2704
85506012, 625, 3136
85527876, 144, 1444
85549704, 484, 361
85570500, 49, 3025
85591320, 900, 1024
85613148, 1156, 1444
85636020, 529, 64
85655784, 676, 4900
85677616, 361, 81
85697388, 81, 49
85716108, 1024, 256
85737956, 576, 81
85757708, 4, 1849
85777476, 784, 5476
85799308, 2304, 1296
85822176, 2401, 12321
85846104, 400, 4761
85867948, 4761, 324
85889784, 9, 7056
85909536, 1369, 7225
85932400, 7921, 24336
85956344, 5929, 8281
85979224, 576, 2916
86001052, 2704, 1521
86023932, 3600, 25
86044748, 2500, 1764
86067632, 144, 256
86088416, 1089, 3025
86111304, 3364, 2704
86134180, 324, 2116
86156020, 1444, 225
86177876, 225, 100
86198668, 49, 10609
86220500, 4356, 8649
86243384, 8281, 3481
86266268, 961, 729
86287064, 196, 2809
86308900, 7569, 36
86329704, 25921, 25
86351528, 10201, 4624
86375476, 144, 256
86396272, 1024, 5776
86419136, 400, 16
86438888, 169, 121
86459712, 2209, 9
86479456, 5184, 25
86500260, 1600, 2704
86523148, 144, 5929
86544992, 49, 1936
86565784, 144, 225
86586588, 1296, 1089
86609460, 1764, 3721
86632332, 64, 0
86650024, 9, 8100
86669788, 1444, 1156
86692656, 3249, 0
86712424, 256, 784
86733220, 144, 484
86754028, 64, 25
86772744, 1024, 0
86792508, 49, 196
86812264, 0, 4
86828900, 100, 4096
86850752, 841, 24336
86873640, 81, 6724
86894424, 784, 4
86913148, 169, 36
86932908, 196, 4
86951620, 4, 324
86970332, 4, 289
86989068, 16, 2209
87009856, 256, 4096
87031704, 0, 484
87050436, 81, 4
87068100, 144, 3481
87089944, 576, 8836
87111792, 625, 1521
87133616, 576, 529
87154428, 1089, 529
87176264, 1296, 81
87197064, 25, 16
87215784, 1369, 64
87236580, 16, 16
87255312, 0, 144
87274020, 1521, 225
87295860, 1024, 196
87317696, 144, 81
87337484, 484, 1
87356172, 9216, 676
87378024, 1936, 3136
87400896, 289, 324
87421692, 289, 1089
87443548, 196, 529
87464352, 169, 9
87483056, 324, 484
87503852, 16, 25
87522580, 225, 169
87543388, 256, 900
87564188, 81, 25
87582904, 121, 49
87602656, 0, 64
87620348, 1, 100
87639072, 9, 196
87657804, 961, 25
87677536, 1024, 961
87699368, 0, 36
87717068, 16, 4225
87737868, 169, 4761
87759712, 1, 49
87777384, 36, 2116
87798180, 144, 361
87818988, 169, 64
87838736, 121, 16
87858500, 16, 961
87878248, 121, 529
87899048, 144, 64
87918824, 361, 1089
87940668, 324, 6241
87962504, 25, 1444
87983304, 169, 225
88004104, 289, 576
88024896, 841, 625
88045708, 1089, 9
88065456, 1849, 0
88085228, 49, 16
88103948, 676, 121
88124756, 169, 100
88145556, 36, 4
88163220, 196, 576
88184012, 36, 256
88203796, 225, 64
88223540, 169, 25
88243300, 4, 49
88260980, 49, 484
88280736, 81, 36
88299464, 25, 36
88318200, 0, 1
88334820, 1024, 576
88356660, 576, 2025
88378516, 289, 81
88398268, 81, 169
88418032, 121, 1
88436756, 25, 4
88454440, 16, 16
88473148, 441, 484
88493944, 121, 729
88514756, 144, 784
88535556, 81, 1444
88556360, 144, 16
88576132, 361, 36
88595880, 4, 81
88613552, 4, 196
88632268, 400, 9
88651008, 25, 9
88668660, 25, 196
88688432, 9, 144
88707152, 0, 81
88724832, 0, 729
88743552, 64, 16
88762260, 16, 144
88782016, 25, 196
88801776, 16, 36
88820504, 49, 289
88840276, 9, 1
88856916, 81, 64
88875644, 1, 1
88892280, 225, 256
88913088, 441, 9
88931780, 144, 64
88951544, 81, 1
88969236, 49, 49
88987960, 169, 9
89006668, 4, 25
89024364, 324, 529
89045152, 324, 2116
89067004, 1, 100
89085716, 9, 144
89104444, 4, 16
89122116, 16, 169
89141868, 81, 121
89161608, 400, 289
89182428, 100, 1
89201140, 16, 81
89219868, 100, 289
89240664, 49, 144
89260432, 0, 0
89277072, 100, 25
89296828, 0, 9
89313468, 169, 81
89333220, 961, 81
89352992, 169, 4
89371728, 225, 16
89391484, 289, 9
89410192, 256, 49
89429940, 256, 144
89450756, 9, 1
89467388, 1, 81
89485076, 100, 4
89503796, 144, 9
89522516, 400, 169
89543304, 676, 256
89564108, 196, 169
89584916, 0, 1
89601552, 16, 676
89621308, 256, 169
89642124, 256, 4
89660832, 4, 196
89679548, 144, 625
89700340, 100, 81
89720112, 324, 64
89739872, 144, 196
89760676, 1, 16
89778352, 0, 36
89796032, 4, 25
89813708, 100, 1
89832428, 16, 0
89850120, 196, 25
89869876, 169, 4
89888592, 100, 36
89908360, 0, 16
89926036, 0, 4
89942676, 121, 256
89963460, 121, 144
89984272, 169, 64
90004032, 81, 9
90021712, 4, 256
90040444, 100, 1
90059156, 169, 289
90079956, 100, 1
90098672, 49, 36
90117400, 64, 1
90135080, 64, 25
90153804, 4, 9
90170436, 4, 169
90189168, 1, 25
90206828, 4, 9
90223476, 64, 144
90243232, 25, 81
90261964, 144, 324
90282756, 256, 484
90303568, 196, 1
90322284, 1, 169
90340996, 121, 100
90361796, 1, 676
90380532, 256, 441
90401320, 169, 361
90422112, 4, 0
90438764, 1, 9801
90458496, 36, 0
90476188, 1444, 19881
90500120, 3600, 961
90521952, 1444, 225
90543792, 729, 64
90563548, 361, 16
90583328, 64, 1
90601004, 256, 324
90621800, 0, 49
90639476, 36, 441
90659236, 1, 784
90677940, 169, 1
90696660, 4, 36
90714360, 81, 81
90733080, 49, 4
90750740, 64, 81
90769464, 144, 36
90789244, 0, 169
90807956, 0, 49
90825632, 16, 0
90843312, 25, 4
90860984, 36, 729
90880756, 0, 361
90899488, 196, 169
90920280, 169, 196
90941068, 0, 81
90958752, 64, 676
90978524, 100, 441
90999328, 4, 36
91016984, 4, 196
91035724, 16, 144
91055480, 36, 0
91073160, 36, 196
91092904, 1, 64
91110596, 196, 49
91130356, 81, 121
91150100, 9, 100
91168820, 25, 400
91188596, 49, 1849
91209392, 0, 196
91228100, 16, 225
91247884, 25, 9
91265564, 36, 4
91283232, 1, 36
91300912, 16, 16
91319640, 9, 361
91338364, 9, 9
91354988, 0, 324
91373712, 25, 81
91392416, 196, 144
91413228, 36, 4
91430904, 0, 0
91447552, 25, 576
91467320, 9, 729
91486032, 4, 324
91504756, 1, 324
91523480, 25, 25
91542192, 361, 4
91560900, 784, 729
91581700, 225, 1600
91603556, 289, 196
91624360, 441, 1
91643084, 36, 0
91660752, 25, 64
91679480, 361, 289
91700280, 9, 169
91718996, 16, 225
91738756, 144, 9
91757468, 144, 36
91777240, 289, 900
91798036, 1296, 0
91817784, 2209, 625
91839624, 1225, 0
91859392, 225, 2401
91881224, 361, 729
91902028, 1444, 144
91923868, 2209, 576
91945692, 1089, 4
91965492, 49, 729
91985232, 25, 441
92004996, 729, 484
92025788, 9, 1
92042432, 361, 484
92063216, 900, 49
92082984, 6400, 400
92104832, 1225, 0
92124596, 256, 9
92143312, 16, 49
92162016, 16, 676
92181788, 81, 484
92201552, 81, 36
92220276, 9, 81
92237952, 529, 36
92257708, 1600, 36
92278508, 484, 961
92299312, 784, 144
92320120, 441, 49
92339868, 225, 36
92359628, 289, 169
92380432, 324, 169
92401228, 1089, 0
92420992, 400, 1681
92442828, 225, 2209
92464680, 196, 81
92484436, 81, 361
92504200, 100, 36
92523940, 0, 1936
92543700, 81, 1296
92564512, 484, 361
92585320, 256, 121
92606124, 441, 225
92626900, 289, 676
92647704, 64, 36
92666420, 100, 225
92687224, 196, 256
92708020, 121, 529
92728832, 529, 81
92748588, 144, 4
92767324, 324, 1
92786032, 169, 0
92804760, 144, 144
92825552, 144, 144
92846360, 4, 25
92864032, 529, 64
92883796, 400, 25
92903564, 0, 49
92921232, 49, 196
92940996, 9, 4
92957628, 144, 121
92978440, 16, 36
92997168, 9, 196
93015880, 16, 36
93034608, 729, 16
93054364, 841, 49
93074116, 9, 441
93092828, 1, 0
93109476, 49, 64
93128200, 1, 9
93144820, 256, 121
93165644, 784, 484
93186444, 64, 1
93204108, 144, 169
93224912, 441, 100
93245728, 49, 4
93263392, 81, 100
93283160, 81, 169
93302920, 25, 169
93322688, 144, 121
93343476, 25, 36
93362208, 1, 0
93378836, 49, 64
93397548, 144, 81
93417312, 25, 0
93435004, 256, 784
93455784, 2116, 900
93477628, 1936, 400
93499488, 289, 169
93520280, 16, 25
93538980, 0, 0
93555616, 1521, 196
93577476, 3025, 196
93599304, 324, 0
93618032, 9, 36
93635716, 169, 484
93656504, 1369, 576
93678356, 576, 121
93699160, 49, 16
93717884, 49, 0
93735560, 9, 100
93754268, 144, 121
93775072, 225, 400
93795876, 3249, 49
93816672, 3481, 16
93837480, 729, 100
93858276, 81, 169
93878028, 0, 9
93894676, 625, 100
93915484, 1089, 81
93936276, 64, 81
93954988, 81, 225
93974756, 81, 36
93993480, 289, 64
94013248, 81, 9
94030916, 144, 225
94051720, 196, 16
94071464, 121, 64
94091228, 4, 4
94107872, 36, 64
94126588, 25, 9
94144276, 49, 36
94162996, 484, 4
94181724, 81, 1
94199396, 0, 9
94216032, 16, 49
94234764, 144, 441
94255552, 361, 784
94276360, 81, 16
94295080, 25, 121
94314836, 121, 36
94334600, 16, 169
94354348, 0, 144
94373088, 784, 1
94391792, 961, 64
94411552, 36, 100
94431320, 25, 0
94448992, 64, 64
94467716, 25, 196
94487472, 16, 81
94506200, 16, 1
94523864, 4, 36
94541544, 121, 25
94561320, 100, 1
94580036, 25, 289
94599788, 36, 25
94618512, 16, 81
94637240, 144, 9
94655960, 324, 16
94675708, 121, 16
94695480, 4, 25
94713160, 1, 441
94731880, 64, 49
94750588, 0, 1
94767240, 144, 121
94788028, 324, 1
94806756, 0, 25
94824420, 144, 36
94844200, 49, 1
94861868, 0, 121
94880592, 4, 36
94898280, 0, 4
94914924, 225, 0
94933636, 361, 361
94954424, 36, 289
94974204, 16, 81
94992920, 81, 25
95011632, 25, 25
95030364, 9, 100
95049076, 1, 25
95066756, 4, 36
95084428, 16, 100
95104200, 0, 1
95120832, 256, 169
95141628, 676, 324
95162444, 9, 0
95179076, 625, 64
95198832, 169, 0
95217560, 64, 25
95236288, 144, 1
95254996, 9, 0
95271636, 676, 196
95292436, 1681, 36
95313236, 676, 100
95334036, 100, 0
95352756, 4, 36
95370444, 1, 144
95389160, 4, 169
95407884, 4, 4
95424508, 81, 0
95442192, 784, 100
95462992, 729, 4
95481712, 81, 4
95499408, 4, 49
95517084, 16, 49
95535792, 0, 36
95553472, 36, 36
95572208, 0, 169
95590908, 729, 4
95609636, 169, 4
95628356, 9, 1
95644996, 9, 64
95662668, 25, 9
95680340, 0, 100
95699084, 0, 121
95717800, 1, 9
95734432, 9, 1
95751068, 4, 484
95769788, 1225, 100
95791628, 441, 4
95810364, 400, 196
95831152, 0, 324
95849872, 625, 0
95868592, 625, 64
95888356, 169, 25
95908128, 1, 25
95925796, 49, 36
95944504, 289, 0
95963236, 676, 16
95983004, 441, 225
96003796, 16, 25
96022504, 4, 36
96040196, 9, 16
96057876, 9, 64
96075552, 36, 121
96095316, 0, 4
96111968, 121, 4
96130672, 81, 100
96150428, 36, 100
96170208, 64, 9
96187880, 100, 100
96208664, 81, 256
96228428, 441, 25
96248192, 441, 81
96267960, 16, 36
96286664, 0, 1
96303316, 0, 25
96320988, 324, 121
96341788, 1024, 36
96362596, 225, 9
96381320, 1, 1
96397948, 0, 121
96416668, 1, 25
96434364, 1, 1
96450992, 1, 0
96467652, 64, 1024
96488424, 16, 1225
96509244, 64, 4
96526912, 36, 196
96546664, 225, 144
96567472, 1, 64
96585148, 64, 324
96604916, 64, 144
96624684, 81, 9
96642364, 4, 36
96660032, 16, 121
96679800, 49, 289
96699556, 100, 225
96720356, 4, 1
96736988, 121, 25
96756756, 36, 0
96774440, 25, 49
96793152, 36, 0
96810836, 36, 0
96828516, 81, 256
96848284, 1, 1
96864904, 400, 81
96884660, 1, 36
96902348, 289, 0
96921064, 0, 36
96938748, 1764, 81
96959564, 1156, 4
96979324, 400, 9
96998028, 1600, 100
97019872, 121, 49
97039636, 169, 0
97058352, 225, 1
97077068, 256, 49
97096836, 289, 144
97117628, 16, 16
97136352, 0, 16
97154032, 1, 16
97171728, 1, 1
97188352, 169, 324
97209152, 225, 225
97229968, 121, 4
97248684, 0, 25
97266368, 4, 9
97282984, 81, 144
97302752, 25, 0
97320424, 36, 16
97339152, 0, 4
97355792, 16, 289
97375556, 1, 49
97393228, 0, 25
97410916, 0, 4
97427564, 324, 100
97448364, 289, 16
97468120, 1, 9
97484748, 81, 9
97502444, 4, 1
97519072, 81, 0
97536760, 0, 64
97554428, 9, 36
97572124, 100, 100
97592916, 36, 25
97611632, 9, 64
97629324, 16, 49
97648036, 16, 36
97666752, 4, 9
97683376, 16, 49
97702124, 9, 81
97719792, 0, 49
97737476, 144, 81
97757252, 49, 36
97775960, 4, 25
97793628, 0, 49
97811316, 16, 144
97831084, 4, 1
97847716, 324, 25
97867484, 196, 1
97886200, 4, 1
97902836, 49, 4
97920520, 9, 16
97938204, 16, 1
97955888, 1, 100
97974596, 196, 9
97993316, 169, 4
98012040, 64, 4
98029716, 121, 1
98048440, 144, 0
98067168, 9, 36
98084828, 121, 64
98104604, 400, 4
98123316, 9, 196
98142032, 36, 1
98159712, 49, 36
98178436, 36, 4
98196112, 16, 4
98213792, 49, 64
98232520, 1, 0
98249144, 0, 36
98266836, 144, 100
98287644, 256, 25
98307404, 225, 1
98326120, 1, 9
98342756, 100, 0
98361484, 1, 64
98379160, 36, 64
98397872, 0, 36
98415544, 256, 1
98434276, 49, 121
98454044, 9, 49
98471716, 16, 9
98489400, 1, 1
98506044, 400, 225
98526836, 484, 121
98547620, 100, 16
98567400, 9, 25
98585076, 81, 1
98602752, 81, 121
98622516, 1, 196
98641236, 81, 1
98658904, 16, 49
98677632, 36, 49
98696352, 25, 1
98714028, 121, 0
98732760, 36, 16
98751472, 9, 1
98768120, 0, 36
98785796, 0, 121
98804508, 49, 9
98822204, 4, 36
98839888, 25, 0
98857564, 0, 4
98874188, 16, 121
98893960, 4, 16
98911632, 0, 0
98928268, 49, 4
98945948, 4, 49
98963648, 0, 16
98981320, 100, 4
99000040, 324, 1
99018744, 289, 9
99037480, 25, 0
99055148, 9, 1
99071792, 484, 361
99092604, 25, 576
99112364, 4, 1
99128996, 1, 9
99145628, 225, 49
99165392, 144, 9
99184112, 49, 36
99202836, 100, 1
99221552, 25, 25
99240272, 81, 64
99258988, 9, 64
99276680, 25, 9
99294364, 4, 1
99310996, 0, 100
99329720, 0, 49
99347388, 81, 1
99365084, 400, 36
99384844, 49, 100
99404592, 4, 25
99422288, 196, 9
99440996, 169, 9
99459716, 9, 25
99477396, 1, 36
99495076, 81, 9
99512756, 49, 81
99531468, 64, 9
99549136, 9, 0
99565804, 9, 36
99583476, 64, 25
99602200, 1, 25
99619880, 144, 25
99639636, 169, 49
99659396, 36, 1
99677076, 16, 36
99695796, 0, 121
99714516, 25, 0
99732192, 121, 16
99751952, 36, 100
99771728, 1, 324
99790440, 25, 289
99810192, 289, 100
99831000, 9, 1
99847636, 64, 4
99865320, 36, 9
99882988, 49, 100
99902764, 25, 4
99920436, 16, 0
99938112, 25, 4
99955792, 9, 4
99972436, 64, 121
99992188, 169, 100
100012988, 121, 9
100032760, 25, 81
100052516, 0, 169
100072264, 169, 144
100094124, 4, 1
100111792, 784, 36
100132596, 729, 1
100152356, 729, 16
100173160, 1156, 144
100196032, 400, 121
100217884, 9, 0
100235568, 121, 1
100255308, 81, 1
100274032, 64, 49
100293796, 169, 16
100314592, 36, 1
100333312, 36, 9
100352044, 196, 1
100371796, 256, 1
100391548, 49, 9
100410272, 4, 4
100427952, 16, 0
100446668, 81, 4
100465400, 36, 0
100484128, 4, 4
100501804, 289, 49
100522596, 361, 4
100542348, 64, 1
100561088, 25, 9
100579796, 196, 1
100599548, 49, 1
100618276, 0, 1
100635960, 4, 16
100654680, 16, 1
100673400, 0, 9
100691084, 81, 1
100709792, 529, 16
100730588, 324, 36
100751396, 441, 64
100772200, 361, 1
100791948, 100, 100
100813788, 25, 36
100833552, 121, 4
100853312, 36, 1
100872028, 625, 4
100891796, 361, 9
100911556, 25, 49
100931316, 9, 16
100950044, 196, 36
100970840, 36, 0
100989548, 4, 9
101007228, 64, 0
101025964, 64, 9
101044668, 49, 9
101063408, 9, 4
101081056, 1225, 0
101101868, 361, 64
101122664, 4096, 4
101143456, 5625, 576
101166352, 1521, 256
101189236, 169, 0
101208988, 1, 0
101226684, 16, 1
101245396, 1, 0
101263080, 121, 0
101282836, 196, 36
101303644, 16, 64
101323408, 1, 1
101341076, 361, 49
101361872, 529, 121
101383712, 25, 9
101402436, 25, 9
101421168, 100, 49
101441956, 49, 49
101461704, 4, 0
101479392, 16, 121
101500196, 289, 100
101522040, 289, 25
101542828, 49, 25
101562592, 81, 0
101581316, 16, 36
101601072, 169, 4
101620832, 4489, 4
101641612, 1936, 324
101664492, 11881, 0
101686340, 2916, 361
101709236, 9216, 169
101732084, 0, 625
101751868, 2153, 12544
101776804, 25744, 9604
101801784, 2884, 4900
101825696, 0, 0
101843380, 784, 25921
101867304, 20449, 3364
101892256, 32761, 30976
101918224, 5041, 4624
101942160, 28561, 12769
101968180, 784, 169
101990008, 121, 9409
102012900, 256, 7056
102035784, 81, 784
102056584, 10816, 36
102079428, 15376, 5041
102104428, 256, 18769
102128328, 0, 576
102148124, 121, 2025
102170976, 0, 17956
102192828, 0, 9025
102213604, 0, 31329
102235448, 4489, 9409
102259368, 25, 3721
102281192, 289, 10816
102305136, 7396, 289
102328016, 7569, 2116
102351952, 6561, 4
102372716, 10000, 0
102394544, 625, 26244
102418460, 15625, 64
102441364, 29241, 24025
102467376, 10201, 49
102490232, 13225, 8993
102515216, 1156, 0
102535996, 20164, 29584
102562020, 3600, 32041
102586960, 121, 81
102607780, 225, 1369
102630660, 576, 256
102652472, 169, 1028
102675348, 8649, 23716
102700324, 25, 81
102720088, 3969, 0
102740880, 25, 31684
102763788, 11881, 0
102785624, 8464, 17424
102810568, 1156, 0
102831388, 4624, 28100
102856312, 22500, 16260
102882340, 0, 0
102900000, 27889, 0
102921856, 0, 0
102939516, 0, 9540
102960340, 24964, 0
102982176, 441, 729
103004016, 7744, 3025
103027944, 10000, 64
103050800, 12321, 28900
103076780, 4489, 5625
103100740, 729, 30276
103124656, 5776, 3844
103148596, 3600, 484
103171456, 0, 0
103189140, 225, 0
103208880, 21316, 1521
103233856, 3721, 15120
103258800, 0, 0
103276488, 1028, 1156
103300424, 21489, 1156
103325356, 0, 256
103345120, 5625, 2304
103369052, 144, 9216
103391920, 64, 25
103411684, 7921, 289
103434556, 144, 729
103456388, 36, 4356
103478240, 10000, 20736
103504260, 3844, 1849
103528184, 22801, 0
103550012, 7569, 11664
103574940, 6889, 4225
103598900, 961, 26244
103622828, 625, 225
103644668, 1, 2809
103665472, 196, 1
103685232, 1936, 625
103708104, 100, 784
103729932, 15625, 21904
103755924, 1, 9025
103776716, 10201, 625
103800656, 1024, 0
103821460, 7396, 17956
103846428, 12321, 9
103868264, 2401, 1600
103892152, 36, 0
103910892, 36, 14161
103933760, 12321, 1225
103958740, 13225, 0
103980588, 16, 19321
104003460, 1156, 196
104026352, 400, 841
104048192, 2916, 6084
104072084, 484, 3136
104094976, 1681, 225
104117872, 49, 20313
104140724, 324, 0
104160516, 2401, 0
104181300, 8464, 6288
104205204, 7744, 7569
104229128, 5929, 11236
104254116, 36, 13225
104276972, 900, 1296
104299868, 2209, 2704
104323772, 23716, 3136
104348712, 30625, 0
104370552, 2116, 15376
104395528, 1936, 441
104418424, 1521, 30276
104443376, 2025, 169
104466256, 11025, 2209
104491208, 225, 0
104510976, 64, 4225
104532800, 23716, 1024
104557764, 4096, 8100
104581692, 25, 13225
104604576, 5329, 11025
104629528, 2401, 0
104650332, 100, 21609
104674232, 3249, 1089
104698180, 1369, 0
104718980, 196, 14161
104742904, 5625, 9
104763704, 1156, 576
104786580, 16, 0
104805292, 10404, 8448
104830244, 256, 0
104849984, 4900, 0
104870784, 1764, 225
104893696, 2116, 324
104916552, 1225, 5625
104940484, 1521, 14641
104965464, 324, 12769
104989356, 1, 0
105007068, 225, 22673
105030956, 8649, 28100
105055920, 6561, 16129
105080920, 0, 1028
105101704, 2601, 22500
105126656, 10404, 1936
105151612, 5929, 0
105172404, 324, 18496
105196336, 729, 22201
105220264, 289, 484
105242096, 5625, 1444
105266028, 361, 2209
105288872, 289, 22500
105312804, 3600, 10609
105337780, 36, 0
105356496, 1024, 0
105377300, 12544, 21316
105403296, 144, 5776
105426168, 36, 1296
105447984, 11881, 29584
105473996, 4096, 19600
105499008, 9, 0
105516668, 3364, 32041
105541612, 0, 196
105561380, 5929, 0
105582188, 11881, 36
105605040, 11025, 17424
105631036, 9801, 1369
105654976, 6889, 28561
105679936, 25, 10201
105702820, 1156, 6400
105726728, 12321, 27556
105752708, 29584, 7569
105777696, 12321, 0
105799528, 4900, 25600
105824504, 49, 784
105845304, 9801, 100
105868176, 225, 32400
105892072, 5041, 5776
105916020, 484, 19600
105939932, 1849, 361
105962824, 13456, 961
105986724, 1024, 29584
106011680, 3969, 2704
106035608, 22500, 11449
106061616, 121, 2500
106084500, 16, 5184
106106328, 30976, 13225
106132312, 3364, 2025
106156248, 4225, 24025
106181212, 6400, 3844
106205112, 3481, 23716
106230084, 4356, 4356
106254008, 2916, 3481
106277940, 9216, 14884
106302896, 8281, 0
106323692, 25281, 21025
106349684, 4356, 0
106370476, 2916, 11881
106395452, 6241, 17689
106420420, 1225, 1681
106444328, 11449, 12544
106470312, 900, 289
106492160, 25, 400
106512976, 64, 1296
106534800, 2025, 1444
106558740, 676, 0
106578504, 81, 8649
106600344, 625, 4225
106623236, 6084, 3136
106647132, 289, 0
106666888, 529, 0
106686652, 2304, 2916
106710564, 1369, 1521
106734476, 7056, 21025
106759460, 2209, 81
106781296, 2500, 3364
106805192, 1369, 21025
106830160, 1369, 400
106853056, 529, 64
106873840, 8464, 15625
106898812, 6241, 3025
106922736, 3600, 11664
106947696, 841, 5329
106970580, 1024, 36
106992424, 7056, 729
107015300, 25, 24025
107038188, 225, 121
107060028, 4900, 3249
107083944, 441, 14641
107107856, 169, 5041
107130724, 3364, 6400
107154656, 1156, 0
107175456, 2116, 6084
107199388, 5929, 961
107222264, 1156, 14400
107247220, 2025, 1849
107271132, 6724, 15376
107296096, 10816, 16384
107322108, 4096, 8281
107346008, 625, 24336
107369912, 6889, 3844
107393856, 8836, 0
107414660, 1849, 29929
107439624, 5041, 11025
107464568, 0, 0
107482248, 4096, 21904
107507212, 22201, 5476
107532160, 4489, 3721
107556112, 0, 24464
107577940, 1521, 13225
107602880, 9604, 0
107623696, 0, 0
107641380, 11236, 5329
107666320, 4, 13456
107688176, 7396, 11236
107713128, 4225, 25600
107738092, 5184, 2601
107762016, 2916, 0
107782808, 5041, 4356
107806736, 7569, 784
107829612, 484, 784
107851460, 324, 49
107872244, 784, 7056
107895148, 5329, 13689
107920104, 529, 18225
107944028, 16900, 13689
107970012, 3136, 0
107990804, 6724, 3249
108014748, 15129, 0
108036584, 3136, 0
108057376, 16384, 25
108080272, 400, 36
108101068, 289, 1849
108123932, 1936, 6241
108147844, 4761, 625
108170724, 10404, 12996
108196748, 6400, 0
108217544, 2601, 22801
108242492, 4489, 21316
108267428, 2500, 1936
108291380, 7056, 9409
108315304, 5929, 9025
108339224, 529, 10816
108363128, 2401, 26244
108388076, 8649, 9604
108412020, 8281, 12996
108436972, 5625, 676
108459856, 6889, 8100
108483768, 289, 18496
108507672, 14884, 8464
108532656, 7396, 11236
108557616, 7569, 225
108580500, 324, 3600
108603344, 24336, 0
108625200, 1521, 30976
108650160, 1936, 2601
108674104, 289, 0
108693868, 6561, 11664
108718824, 0, 36
108737552, 1600, 4
108758360, 7396, 4624
108782244, 256, 25600
108806196, 225, 2601
108829048, 324, 12769
108852976, 1600, 32041
108877936, 2916, 13225
108902880, 6724, 0
108923688, 7056, 5776
108947592, 0, 3364
108968404, 1764, 961
108991300, 729, 3025
109014180, 2116, 14884
109039144, 2916, 7744
109063048, 3844, 29241
109088012, 10609, 6241
109112992, 4, 24649
109134796, 676, 29929
109158740, 841, 9801
109181612, 361, 29584
109205536, 1225, 7225
109229460, 19600, 400
109253364, 3136, 0
109274184, 7056, 9409
109298096, 24025, 121
109322000, 1369, 15625
109346976, 9, 625
109366724, 6889, 2209
109390656, 256, 30976
109414580, 361, 576
109436424, 7744, 0
109457228, 1, 4489
109478032, 4761, 361
109500900, 1444, 24336
109525852, 1156, 8100
109549776, 324, 7225
109572648, 400, 9801
109595536, 361, 8464
109618432, 2209, 0
109639216, 676, 3136
109662084, 841, 6084
109684988, 3136, 3364
109708900, 16, 729
109729676, 100, 1156
109752588, 1681, 0
109773392, 400, 7921
109796264, 324, 1024
109819148, 900, 12996
109843040, 729, 6241
109865940, 144, 24336
109889868, 1600, 1225
109913776, 256, 4
109933528, 2025, 1369
109957468, 2209, 1681
109981364, 8100, 0
110002168, 3721, 25600
110027128, 529, 5776
110050012, 324, 24964
110073936, 169, 2916
110096820, 225, 12321
110120740, 3364, 10609
110145692, 3481, 196
110168600, 9, 8649
110189364, 2209, 1849
110213312, 4225, 18769
110238256, 49, 2601
110260100, 121, 12996
110284028, 729, 36
110304832, 289, 676
110326648, 2116, 81
110348508, 3249, 576
110371388, 121, 17956
110395296, 36, 3969
110417144, 729, 6241
110440008, 100, 2704
110462892, 9, 625
110482672, 1681, 3969
110506576, 900, 9
110526340, 6561, 1
110547136, 4489, 1369
110571056, 5041, 29929
110596012, 1936, 0
110616820, 3844, 25
110638656, 784, 529
110660488, 3600, 10000
110685468, 1225, 256
110708340, 0, 10201
110730168, 100, 12996
110754124, 9, 3969
110774908, 1521, 2209
110798812, 25, 1225
110820668, 256, 625
110842496, 1296, 1089
110866396, 49, 1369
110888276, 121, 8281
110911144, 729, 5184
110934032, 361, 324
110955876, 841, 9604
110978740, 4, 841
110998488, 0, 2025
111019296, 8100, 7225
111043220, 1156, 5476
111067144, 576, 2209
111090028, 0, 26244
111111856, 100, 12100
111135796, 196, 841
111157624, 100, 14161
111181528, 1024, 5625
111205460, 289, 10000
111229376, 2401, 12544
111254340, 2304, 169
111277228, 100, 6889
111300096, 4096, 10404
111325032, 5329, 1681
111348988, 196, 17956
111372896, 2025, 625
111395772, 2500, 1444
111419704, 1089, 10816
111444648, 361, 169
111466504, 1444, 4489
111490420, 1764, 14161
111515380, 100, 8649
111538260, 5329, 3844
111562180, 1296, 729
111585040, 9409, 100
111607932, 81, 7569
111629768, 324, 4900
111652656, 9409, 1296
111676584, 25, 3721
111698408, 121, 6724
111721292, 5625, 1089
111745204, 121, 2304
111768096, 1600, 0
111788896, 529, 2500
111811804, 1, 196
111831544, 225, 1681
111854424, 625, 9
111874196, 16, 484
111894980, 256, 5776
111917856, 324, 10201
111941788, 1600, 28900
111966752, 2401, 11449
111991700, 2704, 0
112012512, 169, 8100
112035392, 2500, 1089
112059304, 64, 7569
112081140, 25, 3844
112102992, 729, 15625
112126884, 625, 21904
112150800, 196, 0
112170588, 9025, 24953
112195536, 12769, 28900
112221536, 3844, 0
112242328, 169, 2916
112265196, 13225, 6889
112290176, 22500, 14641
112316164, 8281, 7569
112340108, 256, 8281
112362972, 11881, 6724
112387932, 16900, 7744
112412900, 10201, 7569
112437844, 25921, 3481
112462792, 23104, 2304
112487788, 1024, 0
112508576, 6241, 24025
112533540, 16, 6561
112555384, 64, 20900
112578264, 529, 19728
112602184, 6561, 10816
112627124, 18225, 2209
112652088, 17161, 22201
112678096, 0, 3249
112698896, 0, 0
112716560, 0, 0
112734244, 9409, 7396
112758164, 121, 17956
112782064, 21609, 0
112803924, 6400, 0
112824720, 0, 625
112844488, 28224, 5776
112869452, 0, 10201
112891268, 32041, 9025
112916244, 1369, 12769
112941208, 0, 0
112958876, 3633, 0
112979664, 1369, 1681
113003608, 17689, 484
113027512, 3721, 2116
113051440, 2704, 0
113072248, 3969, 0
113093048, 2601, 784
113115936, 31329, 1296
113140896, 0, 26244
113162740, 49, 26896
113185612, 3721, 1
113206408, 64, 289
113227216, 4, 196
113246968, 529, 784
113268804, 0, 0
113286500, 2153, 0
113307276, 0, 0
113324960, 289, 144
113346808, 2500, 16
113368640, 27225, 12996
113394636, 13225, 2809
113419584, 784, 0
113439364, 0, 11881
113461192, 0, 4624
113482016, 36, 400
113502816, 25, 100
113523612, 196, 100
113545460, 2116, 4
113566252, 5625, 100
113589120, 0, 0
113606812, 2153, 22416
113631772, 21489, 20548
113657740, 4900, 0
113678580, 0, 21025
113700408, 0, 5625
113721216, 16, 36
113740980, 169, 25
113761784, 25, 81
113781540, 144, 144
113803384, 49, 0
113822100, 16, 64
113841848, 64, 25
113861612, 1, 16
113880348, 49, 25
113900100, 9, 0
113917788, 9, 5776
113938580, 4, 15376
113960408, 676, 2601
113983304, 841, 1
114003068, 9, 16
114021784, 0, 25
114040504, 49, 49
114060252, 36, 4
114078988, 4, 25
114097700, 361, 1
114117464, 225, 23409
114141368, 2209, 13988
114166324, 784, 18496
114190232, 24649, 0
114212092, 11025, 0
114233928, 3969, 16
114255772, 9216, 225
114278644, 3600, 0
114299440, 8464, 0
114320252, 7744, 361
114343140, 25, 36
114362904, 100, 529
114384728, 625, 441
114406588, 3364, 11664
114431528, 11449, 0
114453356, 15625, 18769
114479368, 0, 0
114497048, 20736, 0
114518888, 4225, 64
114540748, 25, 676
114561548, 400, 16
114582332, 64, 324
114603132, 441, 289
114624984, 36, 16
114644744, 144, 256
114666588, 16129, 14161
114692576, 64, 16
114712320, 14400, 9604
114737292, 0, 0
114754968, 8804, 16836
114779932, 16260, 0
114801772, 6400, 0
114822580, 7056, 144
114845472, 576, 0
114865216, 441, 0
114884972, 3025, 8836
114908888, 0, 0
114926552, 12321, 0
114948420, 4900, 0
114969216, 1, 841
114988964, 676, 225
115010816, 16, 100
115031620, 324, 400
115053468, 169, 9
115073232, 36, 144
115094008, 196, 0
115113788, 0, 0
115131456, 30921, 9216
115156404, 0, 0
115174100, 0, 0
115191748, 2500, 0
115212580, 7225, 441
115235440, 0, 0
115253132, 0, 0
115270804, 8836, 0
115291612, 5476, 400
115314500, 0, 289
115334264, 0, 5776
115355052, 19600, 22500
115381056, 2704, 1
115401856, 3249, 3025
115425760, 0, 0
115443448, 21809, 1424
115468428, 9540, 21481
115493360, 10609, 22673
115519368, 19145, 16900
115545380, 0, 7312
115566160, 12321, 29241
115592156, 6400, 289
115615064, 26896, 21025
115641048, 5625, 3844
115664992, 16641, 13425
115690960, 0, 32041
115712804, 0, 3025
115733604, 25, 0
115752340, 676, 21809
115776244, 17689, 27332
115802248, 6724, 0
115823052, 4624, 256
115845916, 0, 0
115863628, 0, 26537
115885460, 24964, 18564
115911456, 441, 10000
115935360, 8281, 0
115956144, 8100, 28224
115981128, 1369, 900
116004032, 144, 28224
116027936, 400, 1444
116050808, 1369, 81
116072660, 19044, 2601
116097604, 15376, 1545
116122552, 27889, 0
116144416, 8993, 513
116167300, 17153, 0
116189120, 8448, 4900
116213084, 0, 7744
116233852, 0, 4096
116254648, 31808, 22080
116280620, 24464, 1028
116305600, 24025, 441
116329548, 9, 12996
116351380, 9216, 11449
116376300, 0, 23716
116398180, 0, 32400
116420024, 11025, 7921
116444968, 0, 19321
116466808, 22500, 2116
116491796, 23268, 1521
116516716, 1296, 26244
116541684, 3600, 900
116564580, 3364, 9540
116588476, 2916, 19600
116613440, 10816, 0
116635280, 1089, 30976
116660244, 30625, 1024
116685192, 5329, 30976
116710172, 12305, 0
116732024, 625, 9025
116754888, 25, 0
116773572, 0, 19600
116795448, 3108, 14400
116820396, 31329, 6241
116845384, 64, 12864
116868260, 64, 18496
116891140, 11025, 4624
116916076, 4096, 7364
116940008, 484, 24025
116963924, 0, 17985
116985760, 24336, 0
117007616, 8100, 4
117028408, 529, 196
117050260, 361, 324
117072096, 49, 19044
117094960, 0, 1296
117115764, 0, 16384
117137632, 676, 256
117159464, 0, 36
117178180, 25, 0
117196912, 2809, 841
117219776, 11449, 196
117243676, 0, 19321
117265532, 27889, 0
117287368, 2401, 16
117309224, 100, 16
117330032, 0, 361
117349780, 0, 4356
117370568, 19044, 4356
117395528, 28900, 0
117417368, 7056, 0
117438172, 9216, 729
117461060, 529, 9
117480832, 9, 1
117498496, 9, 16
117517212, 9, 0
117534912, 1, 9
117552580, 16, 4
117571300, 0, 4
117588960, 0, 0
117606644, 22801, 0
117628488, 5184, 16
117650348, 0, 81
117669060, 12569, 5776
117694016, 3617, 0
117714796, 24964, 0
117736652, 7921, 9
117757464, 484, 121
117779296, 324, 400
117801160, 81, 576
117821928, 13456, 18496
117847916, 784, 15376
117871848, 28100, 11193
117897848, 21025, 0
117919692, 2809, 36
117941540, 21025, 20449
117967524, 121, 10000
117991440, 0, 12864
118013292, 2916, 0
118034080, 17956, 961
118058024, 25, 784
118078824, 400, 81
118099616, 0, 81
118118336, 196, 144
118140200, 49, 169
118160996, 1296, 3249
118184876, 29584, 3600
118209856, 0, 22201
118231684, 0, 0
118249372, 0, 0
118267044, 7225, 31684
118291992, 3136, 0
118312804, 0, 27889
118334652, 0, 7569
118355456, 144, 64
118376248, 0, 100
118396028, 324, 225
118417860, 100, 4
118437620, 25, 81
118457384, 81, 36
118477140, 0, 16
118495860, 49, 36
118515620, 16, 0
118534348, 16, 36
118554100, 36, 16
118573856, 0, 9
118591548, 25, 16
118611308, 9, 0
118628984, 3600, 0
118649768, 2916, 10640
118674724, 9801, 4900
118698640, 3969, 13924
118723608, 0, 0
118741300, 25281, 19728
118767276, 4624, 13924
118792248, 0, 0
118809952, 13924, 513
118833860, 7744, 4624
118857792, 961, 1
118877540, 1225, 9
118898340, 64, 900
118919116, 289, 121
118940968, 0, 0
118958644, 0, 18688
118980496, 0, 5892
119001300, 324, 22673
119025200, 169, 0
119044956, 256, 15376
119068892, 625, 20449
119092792, 0, 169
119112564, 0, 23104
119134420, 289, 25
119155232, 0, 196
119174980, 289, 100
119196816, 16, 16
119216580, 100, 121
119238424, 49, 9
119257148, 9, 64
119275868, 81, 36
119295624, 4, 4
119313296, 36, 49
119333064, 16, 1
119351780, 4, 16
119370500, 25, 9
119389216, 21904, 289
119413132, 8448, 2500
119437032, 11881, 2500
119462008, 0, 0
119479712, 0, 0
119497348, 18225, 0
119519220, 12769, 0
119541072, 0, 28900
119562888, 324, 1681
119585756, 6400, 784
119608664, 0, 24336
119630480, 16641, 13689
119656500, 1521, 4489
119680416, 0, 0
119698080, 28713, 21481
119724088, 11193, 20548
119750084, 23268, 528
119774000, 3249, 0
119794820, 8464, 49
119816660, 1, 289
119836420, 64, 9
119855148, 49, 169
119875944, 121, 36
119896740, 0, 25
119915456, 81, 64
119935232, 25, 0
119953948, 16, 49
119973704, 36, 9
119992424, 0, 9
120010108, 36, 25
120029860, 9, 0
120047532, 15376, 32400
120073536, 0, 0
120091216, 1369, 27889
120116180, 3969, 4
120136992, 49, 100
120157780, 6400, 1369
120181656, 5929, 23716
120206664, 0, 0
120224328, 0, 6561
120245148, 0, 5041
120265944, 5625, 36
120287764, 5041, 0
120308568, 13689, 30625
120334564, 26896, 5625
120359544, 289, 28224
120383432, 25281, 7396
120408436, 18697, 0
120430232, 24649, 6241
120455204, 1600, 5041
120479144, 4356, 0
120499928, 17689, 20164
120525956, 22592, 7056
120550880, 25600, 17689
120576892, 196, 26896
120600812, 10640, 0
120622636, 19321, 0
120644480, 4900, 400
120667368, 0, 0
120685076, 1545, 20548
120710008, 19600, 22416
120736008, 2025, 30276
120760964, 26880, 0
120782792, 0, 0
120800488, 7744, 100
120823380, 121, 0
120843140, 49, 121
120863952, 81, 25
120883720, 144, 4
120903460, 225, 81
120924264, 144, 25
120945076, 81, 36
120964824, 841, 1
120984568, 100, 0
121004352, 25, 9
121023060, 4, 0
121040740, 4, 9
121058440, 3249, 25
121080244, 11664, 484
121104172, 2304, 289
121127068, 0, 16641
121148880, 28900, 1444
121173848, 961, 6724
121196744, 5625, 9
121217536, 7744, 5625
121241436, 6084, 1600
121265384, 5220, 12544
121290324, 15129, 21025
121316348, 64, 0
121335056, 9409, 0
121355864, 900, 0
121375600, 4624, 21609
121400568, 19044, 0
121422404, 21025, 0
121444256, 6084, 256
121467128, 28900, 0
121488964, 22500, 0
121510816, 1521, 1
121531620, 0, 169
121551388, 324, 81
121572176, 0, 64
121590908, 169, 169
121612732, 81, 4
121631464, 25, 81
121651232, 121, 49
121672032, 4, 16
121690740, 64, 64
121710496, 16, 1
121729228, 16, 25
121748980, 36, 16
121768740, 36, 9
121787460, 1024, 49
121809296, 7569, 225
121832180, 1444, 144
121855084, 36, 676
121875876, 1, 9025
121896668, 961, 13689
121920556, 16641, 11664
121946576, 0, 1424
121967364, 16129, 0
121989220, 5929, 64
122011064, 576, 25
122031864, 16, 25
122051632, 0, 0
122069304, 0, 0
122086984, 0, 0
122104652, 19321, 0
122126492, 0, 0
122144188, 841, 0
122163952, 8649, 1600
122187844, 1681, 20313
122212792, 5184, 30976
122237744, 12321, 0
122259620, 13924, 0
122281452, 16641, 484
122305392, 2209, 289
122328252, 256, 100
122350092, 1764, 14884
122375064, 729, 16833
122398984, 11449, 20164
122424988, 0, 9
122442636, 0, 3025
122463452, 9604, 6400
122487376, 24649, 1764
122512328, 0, 196
122532104, 23104, 729
122555996, 0, 0
122573668, 12544, 17153
122599688, 1444, 20313
122624628, 100, 0
122644416, 2601, 9553
122668356, 2500, 31329
122693300, 26244, 11449
122719300, 0, 23409
122741132, 27225, 5329
122766108, 4352, 10816
122791044, 24649, 5625
122816012, 21904, 0
122837840, 81, 2116
122859684, 3364, 21025
122884632, 0, 0
122902316, 11748, 0
122924160, 8100, 2116
122948100, 0, 26880
122969924, 22500, 32041
122995920, 0, 6084
123016720, 0, 2704
123037528, 225, 12864
123061464, 3600, 8993
123085368, 729, 18225
123109268, 4624, 9025
123133216, 1600, 7744
123157120, 17161, 9
123178976, 0, 6400
123199772, 0, 1225
123220568, 22500, 961
123244464, 169, 0
123264276, 841, 6825
123287120, 22201, 0
123308960, 16833, 10201
123334996, 0, 32433
123356812, 25921, 0
123378660, 4352, 484
123401544, 11057, 256
123425444, 0, 19728
123447284, 16384, 2064
123472260, 4096, 1
123493060, 7225, 1936
123516964, 3025, 11025
123541932, 20164, 22500
123567920, 0, 0
123585616, 14884, 0
123607448, 5929, 441
123630336, 3364, 529
123653224, 4356, 7396
123677128, 21609, 7396
123702088, 2304, 12544
123727064, 0, 7905
123747848, 32400, 0
123769692, 7396, 25
123791536, 441, 81
123812336, 196, 225
123834176, 21609, 0
123856020, 13689, 0
123877856, 400, 16
123898656, 2209, 81
123920500, 121, 4
123940260, 36, 64
123960024, 49, 9
123978736, 0, 25
123997460, 49, 36
124017220, 9, 0
124034904, 9, 25
124053620, 25, 1936
124075452, 16, 5329
124097292, 100, 324
124119148, 196, 36
124139948, 0, 0
124157624, 1, 4
124175304, 8100, 121
124198164, 29241, 1156
124223144, 31684, 23104
124249124, 961, 121
124270968, 14641, 11881
124296968, 0, 0
124314672, 0, 0
124332340, 0, 1024
124353132, 0, 6400
124373920, 4624, 16
124395780, 2116, 484
124418648, 9, 5776
124439444, 784, 400
124461304, 0, 81
124480020, 0, 4900
124500816, 29584, 8100
124525768, 169, 0
124545536, 5776, 0
124566340, 1936, 729
124589220, 784, 49
124610020, 1, 0
124627700, 4, 1
124645348, 0, 625
124665116, 21316, 625
124689056, 0, 2500
124709852, 26896, 14641
124735840, 0, 27889
124757680, 30976, 0
124779556, 0, 1764
124800340, 15617, 3844
124825292, 0, 19145
124847120, 18225, 0
124868984, 6724, 100
124891860, 1156, 4096
124915764, 19881, 11449
124941780, 19145, 18564
124967764, 3025, 2916
124991692, 0, 17424
125013528, 2209, 13689
125038488, 0, 26896
125060344, 10201, 1089
125085280, 0, 25600
125107116, 25600, 0
125128984, 5929, 400
125151856, 25, 19321
125174716, 0, 1296
125195524, 0, 8281
125216332, 784, 16
125237140, 196, 169
125258988, 64, 16
125278752, 9, 81
125297452, 121, 64
125318268, 9, 9
125335952, 49, 49
125355704, 49, 9
125374424, 196, 25
125395216, 225, 81
125416012, 144, 36
125436824, 9, 25
125455552, 25, 4
125474280, 25, 9
125492972, 0, 25
125511716, 3136, 2500
125535612, 8281, 9025
125559540, 22500, 5041
125584504, 100, 27556
125608408, 3025, 30625
125633376, 7364, 0
125654180, 0, 0
125671852, 10201, 1600
125696796, 32400, 19600
125722820, 26273, 23865
125748792, 12769, 0
125770640, 0, 4356
125791464, 0, 1
125809116, 6561, 0
125829940, 3481, 6825
125853860, 9540, 64
125875680, 31329, 25600
125901704, 0, 29241
125923520, 21316, 23716
125949544, 196, 9216
125972392, 0, 14161
125994260, 21904, 27556
126020248, 12544, 3249
126045208, 5476, 11449
126070192, 3364, 12305
126095116, 15120, 2025
126120100, 0, 0
126137760, 7364, 10816
126162748, 0, 0
126180436, 19881, 28928
126206412, 1936, 0
126227212, 784, 10000
126251132, 23104, 0
126272984, 3481, 16900
126297928, 225, 1369
126320816, 0, 0
126338496, 0, 10089
126360328, 7744, 6825
126384248, 0, 49
126402960, 22500, 21025
126428980, 441, 784
126450824, 32041, 9025
126475772, 7569, 10000
126500736, 29241, 25281
126526740, 3844, 256
126549624, 11881, 0
126571452, 0, 2025
126592260, 26569, 22201
126618252, 2401, 2304
126642144, 24964, 0
126664000, 7744, 0
126684812, 5776, 225
126707696, 676, 676
126729540, 1600, 11881
126754488, 15129, 2704
126779464, 0, 0
126797132, 36, 32400
126819996, 1521, 0
126840804, 0, 4900
126861616, 32400, 7056
126886568, 1024, 3844
126910492, 19321, 0
126932336, 1225, 4225
126956236, 9025, 8836
126980188, 0, 20164
127002020, 20164, 15625
127028016, 1600, 1444
127051924, 0, 0
127069616, 0, 29328
127091460, 0, 28224
127113288, 14884, 9
127135132, 1936, 2401
127159080, 256, 1681
127181928, 0, 0
127199628, 28224, 2884
127224556, 36, 0
127243312, 1024, 7225
127267228, 5329, 729
127290108, 529, 0
127309864, 4, 18496
127331712, 4624, 1444
127355608, 14641, 9216
127380584, 0, 28561
127402412, 0, 21904
127424256, 1024, 1764
127448188, 676, 6561
127471036, 0, 5929
127491836, 27225, 27889
127517848, 1225, 841
127540744, 0, 6724
127561540, 24336, 22201
127587564, 1764, 1156
127611440, 0, 0
127629136, 28100, 32433
127655132, 0, 0
127672796, 15625, 7225
127697788, 13924, 4225
127722732, 1764, 14400
127747696, 16129, 0
127769532, 8836, 12769
127794488, 7921, 2704
127818428, 0, 0
127836100, 5776, 0
127856896, 20449, 10816
127882880, 8836, 26569
127907872, 361, 0
127927628, 121, 625
127949452, 11664, 15876
127975456, 5476, 12996
128000428, 16384, 0
128022240, 17161, 22201
128048248, 24025, 23104
128074252, 7396, 2304
128098176, 0, 0
128115864, 0, 0
128133524, 1296, 6889
128157436, 12544, 24025
128183448, 0, 5625
128204236, 0, 28224
128226096, 100, 841
128247936, 4356, 13225
128272896, 1225, 4
128293672, 6561, 21316
128318644, 0, 18496
128340516, 5776, 9409
128364404, 2809, 4900
128388344, 1089, 13225
128413280, 0, 2304
128434072, 0, 11236
128455932, 2401, 1156
128479856, 0, 0
128497508, 9553, 0
128518340, 5753, 0
128539140, 5041, 12769
128564096, 2116, 3364
128588032, 9, 0
128605696, 484, 0
128625448, 0, 7744
128646276, 2401, 625
128669124, 0, 29929
128690964, 31329, 22801
128716964, 2601, 4761
128740908, 0, 5476
128761692, 30276, 12321
128787716, 784, 21904
128811616, 0, 729
128831376, 1028, 27889
128856324, 10816, 1521
128881292, 2585, 19044
128906268, 22500, 0
128928112, 24336, 3844
128953064, 225, 2401
128975924, 9604, 13924
129000908, 0, 15129
129022728, 25921, 0
129044584, 1849, 0
129065384, 0, 289
129085140, 289, 36
129105956, 1, 3600
129126756, 49, 2401
129148556, 0, 400
129168336, 0, 23409
129190172, 900, 2916
129213064, 0, 529
129232808, 676, 64
129253644, 169, 169
129275456, 36, 3721
129297292, 0, 27556
129319144, 23716, 5625
129344092, 625, 2116
129366980, 64, 21316
129389864, 0, 6724
129410640, 24649, 1521
129435592, 1369, 3481
129459548, 0, 8649
129480332, 29241, 21025
129506352, 2304, 4356
129530248, 0, 3600
129551052, 30976, 25600
129577064, 15129, 6561
129602008, 6084, 36
129623840, 14884, 15376
129649848, 0, 30276
129671680, 23716, 0
129693520, 2809, 441
129716420, 3721, 7569
129740328, 19881, 676
129764236, 22801, 5776
129789220, 0, 21025
129811044, 5041, 4489
129834956, 23409, 13924
129860996, 9409, 6241
129884908, 11664, 24336
129910880, 0, 28224
129932716, 11664, 0
129954564, 2500, 169
129977468, 0, 16641
129999292, 17424, 14884
130025296, 3136, 9216
130049220, 0, 81
130067920, 30625, 0
130089768, 4, 27225
130111620, 900, 400
130133452, 784, 0
130153228, 256, 10404
130177144, 0, 64
130195860, 0, 0
130213532, 1225, 1521
130237464, 0, 0
130255116, 4689, 0
130275944, 12864, 16384
130301916, 16129, 2704
130326896, 7921, 0
130347672, 9604, 14641
130372640, 16900, 1600
130397604, 0, 9604
130418412, 20449, 9216
130443392, 49, 676
130464180, 169, 121
130486024, 1225, 7744
130509924, 0, 9
130527600, 0, 15625
130549448, 2401, 8281
130573376, 529, 4225
130596260, 0, 5625
130617052, 32041, 8281
130642016, 144, 3844
130664900, 64, 0
130683620, 3600, 22080
130708556, 27225, 7364
130733544, 0, 10404
130755376, 8464, 5929
130779308, 121, 9
130799052, 529, 1296
130821956, 1521, 1296
130845844, 0, 18769
130867672, 30276, 3844
130892640, 3969, 1444
130916584, 0, 0
130934256, 18564, 4160
130959208, 17956, 0
130981060, 5184, 100
131003936, 13924, 17689
131029912, 0, 20449
131051764, 0, 0
131069456, 2304, 1296
131093372, 529, 25
131114188, 400, 5041
131137056, 0, 100
131156824, 0, 11025
131178676, 1024, 784
131201560, 0, 1225
131222336, 36, 81
131242120, 81, 1521
