Timestamp (micros),Sensor1 (mV),Sensor2 (mV),Label
53864,9216,3364,6
56088,529,196,6
58224,100,100,6
61724,225,441,6
79388,361,100,6
97068,36,49,6
112672,361,100,6
131404,49,9,6
146996,49,36,6
163636,9,16,6
179240,49,36,6
195876,400,9,6
212524,1,4,6
227072,9,16,6
242668,16,9,6
258284,1,1,6
272832,1,16,6
288424,1,0,6
303000,0,4,6
317564,4,4,6
332112,25,4,6
347704,16,4,6
363312,1,0,6
377880,9,1,6
392432,81,0,6
408028,9,0,6
422596,9,4,6
437152,16,9,6
452760,0,0,6
467316,1,0,6
481868,36,9,6
497472,81,4,6
513076,144,9,6
529712,49,16,6
546348,4,0,6
560908,0,1,6
575468,0,0,6
590036,9,1,6
604588,0,0,6
619144,1,0,6
633716,4,0,6
648288,4,0,6
662840,16,4,6
678444,25,4,6
694036,36,1,6
709624,9,0,6
724196,16,1,6
739796,144,1,6
756428,49,0,6
772036,1,4,6
786608,36,4,6
802192,4,0,6
816752,16,9,6
832352,64,0,6
847960,1,16,6
863560,1,0,6
878120,0,4,6
892672,121,1,6
909320,784,36,6
927000,400,49,6
944688,9,0,6
959232,81,36,6
975884,36,1,6
991484,9,4,6
1006036,25,9,6
1022668,36,4,6
1039308,0,1,6
1054924,225,1,6
1072588,225,36,6
1091312,64,0,6
1107940,9,16,6
1124608,144,1,6
1142276,361,4,6
1159960,289,9,6
1177644,169,1,6
1195320,9,0,6
1210924,1,0,6
1226520,1,0,6
1242108,0,9,6
1257724,16,25,6
1275392,49,0,6
1292024,625,49,6
1310748,841,36,6
1329472,1089,9,6
1348188,576,1,6
1365872,400,49,6
1384596,3025,16,6
1404344,5929,1089,6
1426188,1521,324,6
1447000,100,1,6
1464684,196,49,6
1483384,49,64,6
1501048,11025,144,6
1522904,9025,400,6
1543696,20449,81,6
1564512,0,3600,6
1583216,0,3249,6
1601948,9,169,6
1619628,49,0,6
1636248,10201,169,6
1658112,11236,0,6
1677856,36,169,6
1696576,10000,36,6
1717392,1225,100,6
1738176,16384,25,6
1758980,5329,100,6
1779800,1764,0,6
1798532,3136,196,6
1819304,7225,441,6
1840092,5329,256,6
1860900,1936,64,6
1880656,10609,9,6
1900440,676,9,6
1918112,11881,225,6
1939932,13456,100,6
1961784,5184,144,6
1982584,2809,441,6
2003388,196,256,6
2023144,1444,4,6
2041852,3721,9,6
2060580,256,169,6
2080336,12321,900,6
2102184,100,1600,6
2122992,7921,64,6
2142752,3969,1,6
2161448,4096,289,6
2182268,784,49,6
2200996,121,4,6
2218672,225,361,6
2238424,324,225,6
2258188,64,144,6
2276908,3969,16,6
2296668,1089,121,6
2317464,21025,64,6
2338268,3600,225,6
2359072,196,0,6
2376744,529,9,6
2394424,25,16,6
2412108,6889,49,6
2431872,5776,225,6
2452664,1681,4,6
2471380,0,0,6
2486980,900,36,6
2505696,100,36,6
2524408,25281,484,6
2546268,17408,3249,6
2569128,30625,2809,6
2592036,676,16,6
2610748,169,25,6
2629480,324,9,6
2647152,3025,676,6
2667940,7225,784,6
2688744,2304,64,6
2708524,256,4,6
2726204,64,1,6
2742824,2304,16,6
2762580,2209,9,6
2781312,16,16,6
2798988,0,81,6
2815620,1600,9,6
2834332,10404,64,6
2855152,1764,64,6
2874908,2209,121,6
2895716,169,121,6
2915472,1225,36,6
2935228,3136,1,6
2953944,4900,9,6
2972652,144,121,6
2992420,11664,121,6
3014248,25921,1444,6
3037128,32041,1156,6
3060028,26569,1369,6
3082904,2916,400,6
3103692,0,2304,6
3122424,1545,4761,6
3144260,0,1681,6
3162984,0,3721,6
3181700,0,4624,6
3200436,1764,225,6
3221232,25,49,6
3238900,6724,576,6
3259700,4096,676,6
3280508,6400,225,6
3301296,11664,441,6
3323152,5776,64,6
3342896,0,676,6
3360584,8100,529,6
3381404,3721,16,6
3401140,9801,441,6
3421948,4,361,6
3439612,7569,144,6
3460432,6241,289,6
3481216,14161,16,6
3502000,20164,676,6
3523864,324,576,6
3543620,7396,36,6
3563372,0,1521,6
3582100,6561,3025,6
3603952,961,225,6
3623688,529,0,6
3641384,4096,1936,6
3663232,6084,9,6
3681936,29584,1764,6
3704824,4624,0,6
3723556,36,81,6
3741212,2304,784,6
3762020,11025,324,6
3783876,1089,1,6
3802588,6084,9,6
3821292,17161,400,6
3843144,5776,1444,6
3864984,2916,196,6
3885780,10609,16,6
3906596,1849,576,6
3927384,484,9,6
3945068,1156,225,6
3965848,4761,121,6
3986664,10816,64,6
4007468,12544,1369,6
4030348,5776,289,6
4051144,1936,49,6
4070904,19044,256,6
4092756,484,121,6
4112500,23716,361,6
4134336,4225,441,6
4155152,484,1,6
4172836,8464,1,6
4191552,13425,1681,6
4214412,11193,6889,6
4237300,15876,1849,6
4260212,16,9,6
4276840,6889,4,6
4295536,5041,361,6
4316336,324,484,6
4336084,676,49,6
4354824,784,0,6
4372500,2704,169,6
4393312,14884,324,6
4415156,1521,324,6
4435952,0,49,6
4452604,1,49,6
4469244,676,4,6
4486912,256,100,6
4506672,121,1,6
4524360,676,25,6
4543076,1,1,6
4558664,3364,16,6
4578436,4225,169,6
4599228,6724,361,6
4620024,1849,361,6
4640816,29241,169,6
4662656,0,2809,6
4681380,3481,729,6
4702180,5776,100,6
4722984,17689,225,6
4744840,121,441,6
4764588,10816,64,6
4785384,2500,625,6
4806184,484,16,6
4824900,256,0,6
4842584,3025,25,6
4862340,3600,196,6
4883156,361,0,6
4900816,1024,256,6
4921620,6084,36,6
4941384,169,400,6
4961156,6084,529,6
4981956,36,169,6
5000656,529,361,6
5020424,25,289,6
5039148,196,196,6
5058908,9216,1,6
5077620,9216,1764,6
5099448,25,484,6
5118184,5929,729,6
5138992,400,4,6
5156656,21025,1521,6
5179540,100,169,6
5199312,49,361,6
5218000,0,2025,6
5236752,17408,6400,6
5259624,2116,144,6
5280428,784,49,6
5299144,441,784,6
5318892,24649,441,6
5340740,11193,7056,6
5363608,0,1296,6
5382356,1296,144,6
5403148,4489,529,6
5423936,484,400,6
5443720,225,1089,6
5464512,289,1,6
5482196,16,1,6
5498816,1024,576,6
5519612,676,81,6
5538336,7569,324,6
5559140,16129,289,6
5580984,5776,169,6
5601768,1296,324,6
5622592,324,4,6
5640264,4356,625,6
5661064,15376,484,6
5682904,11236,625,6
5704756,9,729,6
5722436,25,9,6
5739072,196,16,6
5757784,81,144,6
5776508,1369,16,6
5796268,7569,256,6
5817072,361,289,6
5836832,2209,36,6
5856588,4096,144,6
5877388,5184,121,6
5898180,16129,625,6
5920012,11881,729,6
5941872,5929,16,6
5961624,0,1681,6
5980340,21025,900,6
6002204,5041,441,6
6023000,841,529,6
6042752,1764,36,6
6062508,196,9,6
6080168,8836,144,6
6100968,9409,841,6
6121800,3481,529,6
6142588,3364,100,6
6163376,14161,324,6
6185244,13924,1024,6
6208116,1296,256,6
6228892,14641,256,6
6250748,17985,2500,6
6273612,0,4624,6
6292344,3025,1225,6
6314184,6724,49,6
6333944,2809,121,6
6354740,64,0,6
6371388,2704,36,6
6391156,2304,289,6
6411948,1681,36,6
6431712,2116,196,6
6452512,36,25,6
6470196,16,16,6
6487868,676,324,6
6507644,289,9,6
6525320,121,0,6
6542988,4,196,6
6560656,1369,25,6
6580424,11664,49,6
6601240,9801,1024,6
6623068,3600,400,6
6643876,36,1,6
6660504,5929,36,6
6680256,1296,256,6
6701072,961,49,6
6719784,5929,144,6
6740580,2401,361,6
6761380,625,4,6
6779076,121,121,6
6798832,361,16,6
6817532,5776,144,6
6838360,13689,400,6
6860192,1225,484,6
6880996,1444,16,6
6900764,784,196,6
6920520,441,0,6
6938180,144,4,6
6955864,144,16,6
6974580,3844,1,6
6993316,13456,529,6
7015148,12100,900,6
7036988,14884,361,6
7058828,6889,576,6
7079628,5625,400,6
7100428,3969,196,6
7121220,900,100,6
7140980,1369,100,6
7161768,1024,36,6
7181560,4624,225,6
7202352,361,100,6
7222120,1,25,6
7238756,9216,16,6
7258496,0,1444,6
7277224,23716,3249,6
7300116,4,81,6
7316760,21025,625,6
7338580,27556,1024,6
7361448,841,484,6
7381244,9409,256,6
7402020,2025,400,6
7422820,324,16,6
7441548,9801,36,6
7461316,3481,324,6
7482108,0,0,6
7497704,0,49,6
7514348,2209,1,6
7533064,1936,196,6
7553844,5476,169,6
7574668,0,961,6
7592336,22801,3364,6
7615224,49,144,6
7633944,7569,16,6
7653708,10201,1764,6
7676572,2304,121,6
7697364,1369,81,6
7717148,64,289,6
7735848,2304,0,6
7754560,0,196,6
7772260,0,4489,6
7790992,5329,2025,6
7812824,196,49,6
7831536,121,36,6
7850264,4489,441,6
7871064,16384,121,6
7892896,14161,784,6
7914736,14161,1681,6
7937616,16129,841,6
7959460,11025,441,6
7981324,2500,625,6
8002116,841,100,6
8021868,841,0,6
8039544,2025,81,6
8059304,5476,289,6
8080112,25,4,6
8096740,5329,324,6
8117560,729,81,6
8136256,25,9,6
8152900,3249,121,6
8173704,29929,784,6
8195548,30564,2500,6
8218416,8448,5184,6
8240264,13689,2025,6
8263144,1,36,6
8279784,10609,0,6
8299556,5184,169,6
8320348,3025,121,6
8341140,3364,64,6
8360892,49,4,6
8377544,4,121,6
8395212,16384,1024,6
8418100,28900,5041,6
8440984,3600,2304,6
8462836,4761,64,6
8482572,0,900,6
8500268,8649,1296,6
8522104,576,0,6
8539776,7056,1,6
8558484,6889,1156,6
8580364,1,25,6
8596992,361,49,6
8615724,169,324,6
8635488,121,49,6
8654188,676,25,6
8672904,8649,16,6
8692652,23104,625,6
8714500,26569,2304,6
8737400,1936,484,6
8758184,324,100,6
8777956,441,49,6
8796664,81,100,6
8815384,1600,49,6
8835160,529,100,6
8854920,36,100,6
8873624,196,121,6
8893372,1600,169,6
8914192,900,100,6
8933964,64,25,6
8951636,9409,196,6
8972424,0,2401,6
8991140,5220,4225,6
9012976,19881,1369,6
9035864,361,196,6
9055636,100,49,6
9074344,9,0,6
9089944,1764,0,6
9108676,2500,256,6
9129464,441,81,6
9148180,841,0,6
9165868,1,64,6
9182524,5476,49,6
9202240,0,1296,6
9220976,32433,6400,6
9243856,0,4356,6
9262580,28561,1681,6
9285456,13225,1849,6
9308340,256,361,6
9328108,256,121,6
9347884,4,25,6
9364508,7225,25,6
9384260,17161,1521,6
9407136,4489,576,6
9427924,64,64,6
9445632,4,1,6
9461212,196,49,6
9479944,2025,9,6
9498668,196,64,6
9517396,9,49,6
9534036,676,36,6
9552760,1,0,6
9568360,289,25,6
9587088,196,1,6
9604748,4,25,6
9621372,4761,49,6
9641156,10404,729,6
9663004,1600,121,6
9683792,49,16,6
9701476,900,4,6
9719132,9801,225,6
9739944,2025,900,6
9760728,23104,400,6
9782584,32761,3025,6
9805476,3481,225,6
9826248,2116,0,6
9844972,2500,49,6
9864748,1600,16,6
9884520,1444,0,6
9903236,625,16,6
9921956,3136,100,6
9942752,3481,400,6
9963544,9,64,6
9980172,10201,256,6
10002016,18769,625,6
10024896,4356,441,6
10046756,289,144,6
10067548,1444,49,2
10088356,1521,25,2
10109160,196,9,2
10127872,784,49,2
10147628,100,144,2
10168436,1936,9,2
10188192,1849,169,2
10210028,1600,36,2
10230824,11449,324,2
10253708,32041,1764,2
10277624,9604,1024,2
10300504,8649,121,2
10322332,0,1521,2
10342100,24649,2704,2
10366040,3721,36,2
10386832,100,36,2
10406580,676,144,2
10427388,441,361,2
10448192,1764,196,2
10470032,7056,16,2
10490820,6400,676,2
10512672,81,625,2
10532436,100,16,2
10552196,400,0,2
10570908,5929,400,2
10592744,11881,256,2
10615628,3249,144,2
10637468,8281,361,2
10659304,26569,900,2
10682176,18496,529,2
10705064,3481,361,2
10726900,1369,361,2
10748744,6561,256,2
10770600,2401,169,2
10792424,2809,49,2
10813220,4900,225,2
10835080,324,169,2
10855872,169,64,2
10875636,729,9,2
10894352,9,0,2
10910988,441,16,2
10930744,16,4,2
10948424,4225,100,2
10970264,4900,361,2
10992100,225,36,2
11011864,1,1,2
11028504,676,9,2
11047240,441,25,2
11066988,441,16,2
11086748,81,1,2
11104436,36,81,2
11123140,10201,144,2
11146016,7744,1024,2
11168908,2209,64,2
11189688,324,64,2
11209468,576,529,2
11230272,4,1,2
11246916,121,289,2
11267712,256,144,2
11288512,49,1,2
11306196,36,100,2
11325952,49,16,2
11344676,1,9,2
11361324,49,625,2
11381084,1,289,2
11399784,0,441,2
11418520,25,2116,2
11439312,49,2809,2
11460104,3600,1600,2
11482984,7056,0,2
11502760,961,144,2
11523544,3844,0,2
11543300,5041,324,2
11565148,36,169,2
11584916,324,256,2
11605716,1225,9,2
11625464,529,0,2
11644204,49,121,2
11663956,144,16,2
11683708,1444,81,2
11704512,3844,144,2
11726352,1296,0,2
11746116,100,36,2
11765876,0,4,2
11782524,256,1,2
11801224,1521,49,2
11822012,3025,169,2
11843868,676,100,2
11864668,1,16,2
11882356,4,1,2
11898992,36,0,2
11916680,36,16,2
11935388,16,4,2
11953064,256,36,2
11972836,784,16,2
11992612,441,289,2
12013388,576,121,2
12034204,1849,36,2
12055000,1089,16,2
12075796,196,4,2
12094516,9,4,2
12111164,49,4,2
12128844,144,1,2
12147548,0,4,2
12164192,0,9,2
12180836,49,4,2
12198516,49,0,2
12216196,36,1,2
12233880,9,4,2
12250512,1,0,2
12267156,4,0,2
12283796,1,0,2
12300456,4,1,2
12317080,4,0,2
12333720,16,0,2
12351388,49,4,2
12369072,100,16,2
12388828,9,0,2
12405484,16,4,2
12423144,81,4,2
12440832,121,9,2
12459552,100,0,2
12478276,4,1,2
12494924,0,0,2
12511552,49,0,2
12529232,9,0,2
12545880,1,1,2
12562516,25,1,2
12580208,16,1,2
12597876,0,1,2
12614516,9,0,2
12631156,0,0,2
12647792,1,0,2
12664432,1,0,2
12681068,1,0,2
12697712,0,1,2
12714356,49,0,2
12732036,49,0,2
12749712,16,1,2
12767396,16,0,2
12785084,64,0,2
12802756,196,4,2
12821460,9,4,2
12838124,0,0,2
12854756,49,0,2
12872440,1,1,2
12889064,64,0,2
12906756,9,9,2
12923396,1,0,2
12940028,36,4,2
12957716,64,0,2
12975396,64,0,2
12993080,324,4,2
13011792,576,25,2
13031556,144,16,2
13051316,0,0,2
13067948,9,0,2
13084580,0,0,2
13101240,49,1,2
13118916,4,1,2
13135552,0,1,2
13152188,1,1,2
13168836,25,0,2
13186512,64,4,2
13204188,289,36,2
13223964,169,25,2
13243712,400,0,2
13262424,1521,81,2
13283228,49,49,2
13301964,100,16,2
13321712,121,0,2
13340436,225,25,2
13360200,1,1,2
13376848,16,4,2
13394516,25,0,2
13412200,36,16,2
13430920,81,16,2
13449636,144,1,2
13468348,9,9,2
13484988,9,4,2
13501636,25,4,2
13519308,49,1,2
13536988,16,0,2
13554668,0,0,2
13571328,9,4,2
13587956,25,1,2
13605636,1,9,2
13622264,16,0,2
13639960,64,4,2
13657644,25,16,2
13676356,4,0,2
13692996,36,1,2
13710680,64,1,2
13728348,16,0,2
13746032,64,1,2
13763720,4,1,2
13780356,4,0,2
13796984,9,0,2
13813636,36,1,2
13831316,16,4,2
13848996,0,1,2
13865624,0,0,2
13882264,0,0,2
13898916,0,1,2
13915564,0,1,2
13932196,4,0,2
13948832,49,1,2
13966520,25,4,2
13984196,16,0,2
14001872,1,0,2
14018504,9,0,2
14035164,1,1,2
14051792,36,4,2
14069468,49,25,2
14088188,1,9,2
14104840,49,1,2
14122524,16,1,2
14140192,4,0,2
14156844,36,1,2
14174524,9,4,2
14191160,81,4,2
14208836,361,9,2
14227556,256,16,2
14247320,36,4,2
14264988,0,1,2
14281628,9,1,2
14298284,49,1,2
14315956,36,1,2
14333636,36,1,2
14351304,289,4,2
14370040,676,25,2
14389800,36,25,2
14408512,121,0,2
14427236,9,1,2
14443876,0,1,2
14460516,25,1,2
14478192,64,16,2
14496912,49,4,2
14514604,4,9,2
14531236,4,9,2
14547868,4,0,2
14564512,9,0,2
14581156,64,0,2
14598836,64,1,2
14616508,49,1,2
14634200,9,0,2
14650824,0,0,2
14667472,4,0,2
14684104,1,0,2
14700756,1,0,2
14717396,9,1,2
14734036,4,1,2
14750668,4,0,2
14767320,1,0,2
14783956,4,1,2
14800604,4,4,2
14817236,49,4,2
14834920,49,0,2
14852592,1,0,2
14869232,1,0,2
14885864,16,0,2
14903552,0,0,2
14920188,4,1,2
14936820,0,0,2
14953456,0,0,2
14970108,0,0,2
14986752,1,0,2
15003396,0,0,2
15020040,4,0,2
15036684,36,1,2
15054364,1,1,2
15070996,64,1,2
15088676,25,1,2
15106352,0,0,2
15122992,1,0,2
15139640,64,0,2
15157328,225,1,2
15176036,36,0,2
15193712,0,0,2
15210352,16,0,2
15228036,81,4,2
15245720,25,16,2
15264436,1,0,2
15281068,1,0,2
15297720,1,1,2
15314356,25,0,2
15332036,36,1,2
15349704,256,4,2
15368444,169,9,2
15387168,1,0,2
15403792,9,1,2
15420444,64,1,2
15438116,81,9,2
15455796,4,0,2
15472444,49,0,2
15490120,9,1,2
15506760,16,0,2
15524428,16,1,2
15542116,9,0,2
15558760,1,0,2
15575404,144,0,2
15594112,64,9,2
15611792,1,4,2
15628436,4,1,2
15645084,1,1,2
15661704,0,0,2
15678360,0,1,2
15695004,1,1,2
15711644,4,1,2
15728272,25,0,2
15745948,9,0,2
15762596,0,0,2
15779240,4,1,2
15795880,36,1,2
15813540,9,0,2
15830204,4,0,2
15846832,64,4,2
15864508,121,9,2
15883224,25,1,2
15900916,0,1,2
15917548,36,1,2
15935236,49,4,2
15952924,1,1,2
15969552,0,0,2
15986200,0,1,2
16002824,0,0,2
16019472,4,0,2
16036124,4,1,2
16052764,16,4,2
16070428,16,9,2
16088120,4,4,2
16104764,9,0,2
16121392,16,0,2
16139068,4,0,2
16155716,1,1,2
16172364,4,1,2
16188992,9,1,2
16205628,0,1,2
16222276,0,4,2
16238916,4,1,2
16255556,9,0,2
16272196,9,0,2
16288844,49,0,2
16306524,100,4,2
16325236,9,9,2
16341872,4,1,2
16358516,36,0,2
16376204,196,4,2
16394920,196,25,2
16414664,9,9,2
16431312,0,0,2
16447948,0,1,2
16464592,1,0,2
16481228,1,4,2
16497880,36,1,2
16515548,256,9,2
16534280,25,1,2
16551964,9,0,2
16568600,25,0,2
16586284,1,0,2
16602904,144,0,2
16621636,49,9,2
16639316,0,1,2
16655948,4,0,2
16672592,49,0,2
16690272,25,0,2
16707948,0,0,2
16724596,4,0,2
16741232,9,0,2
16757880,1,1,2
16774508,16,0,2
16792180,25,0,2
16809872,4,0,2
16826520,25,4,2
16844200,100,9,2
16862920,16,4,2
16880588,1,0,2
16897244,0,1,2
16913864,0,1,2
16930516,0,0,2
16947148,16,0,2
16964836,4,0,2
16981476,0,0,2
16998108,0,0,2
17014744,16,1,2
17032444,25,1,2
17050116,1,0,2
17066752,1,0,2
17083388,16,0,2
17101084,4,0,2
17117724,1,0,2
17134348,1,4,2
17151004,1,1,2
17167632,0,0,2
17184284,4,0,2
17200904,0,0,2
17217556,0,0,2
17234196,0,0,2
17250836,4,0,2
17267476,4,0,2
17284112,16,0,2
17301800,49,0,2
17319464,25,0,2
17337148,25,0,2
17354848,1,0,2
17371476,25,1,2
17389156,1,1,2
17405804,1,0,2
17422444,169,4,2
17441152,36,4,2
17458828,4,4,2
17475472,100,0,2
17494196,625,36,2
17513940,324,25,2
17533700,4,0,2
17550360,16,1,2
17568040,0,0,2
17584672,49,0,2
17602352,36,9,2
17620044,0,4,2
17636680,0,1,2
17653308,0,0,2
17669956,1,1,2
17686604,4,0,2
17703240,0,1,2
17719876,4,9,2
17736508,1,0,2
17753156,1,1,2
17769792,25,0,2
17787472,16,0,2
17805148,9,0,2
17821804,64,1,2
17839476,16,4,2
17857156,16,1,2
17874844,121,1,2
17893564,225,16,2
17913312,64,16,2
17932036,9,1,2
17948668,4,4,2
17965316,16,1,2
17983004,25,1,2
18000676,1,1,2
18017324,1,0,2
18033952,0,0,2
18050592,4,1,2
18067224,0,1,2
18083884,9,0,2
18100520,81,0,2
18118192,36,4,2
18135868,1,0,2
18152524,9,0,2
18169156,81,1,2
18186828,64,1,2
18204512,4,0,2
18221160,4,1,2
18237796,0,4,2
18254440,9,1,2
18271068,1,0,2
18287720,1,0,2
18304352,25,0,2
18322036,64,1,2
18339712,1,4,2
18356352,9,0,2
18372992,1,0,2
18389632,0,1,2
18406276,1,0,2
18422920,25,0,2
18440604,121,1,2
18459316,9,4,2
18475948,1,0,2
18492604,1,0,2
18509236,9,4,2
18525864,16,1,2
18543560,1,1,2
18560204,9,1,2
18576828,0,0,2
18593476,0,0,2
18610108,16,1,2
18627792,0,0,2
18644436,1,0,2
18661072,1,4,2
18677708,4,0,2
18694356,1,0,2
18710996,9,0,2
18727640,36,1,2
18745308,36,0,2
18762992,25,0,2
18780668,1,1,2
18797308,36,0,2
18815000,9,1,2
18831640,9,0,2
18848268,9,0,2
18864904,4,0,2
18881560,4,1,2
18898196,0,1,2
18914836,0,1,2
18931468,0,0,2
18948112,0,0,2
18964752,0,0,2
18981400,0,0,2
18998032,1,0,2
19014672,0,0,2
19031312,0,0,2
19047956,4,4,2
19064596,1,1,2
19081236,0,1,2
19097884,4,0,2
19114520,0,0,2
19131148,1,0,2
19147800,9,0,2
19164440,1,0,2
19181076,0,0,2
19197712,1,4,2
19214360,0,4,2
19230992,4,0,2
19247644,49,0,2
19265316,25,1,2
19283000,0,0,2
19299636,0,0,2
19316276,1,4,2
19332912,25,1,2
19350592,64,4,2
19368276,16,1,2
19385956,9,0,2
19402588,81,1,2
19420284,81,1,2
19437956,25,0,2
19455628,49,1,2
19473304,16,0,2
19490996,25,0,2
19508680,49,4,2
19526344,36,0,2
19544028,1,0,2
19560684,1,1,2
19577308,4,0,2
19593944,16,4,2
19611624,25,1,2
19629316,36,1,2
19647004,16,4,2
19664676,1,1,2
19681312,4,0,2
19697964,1,0,2
19714604,0,0,2
19731224,9,0,2
19747876,4,0,2
19764516,1,0,2
19781168,4,0,2
19797796,9,0,2
19814436,9,0,2
19831072,0,0,2
19847724,4,0,2
19864352,1,0,2
19880992,0,0,2
19897640,1,1,2
19914280,1,0,2
19930904,9,0,2
19947560,1,0,2
19964208,0,1,2
19980844,0,0,2
19997472,1,0,2
20014116,4,1,2
20030760,0,0,2
20047404,1,0,2
20064032,1,0,7
20080676,0,0,7
20097320,0,1,7
20113960,0,1,7
20130592,1,0,7
20147228,0,0,7
20163884,1,0,7
20180524,0,0,7
20197156,0,0,7
20213804,1,0,7
20230448,36,0,7
20248116,64,4,7
20265792,16,4,7
20283472,0,0,7
20300124,1,0,7
20316756,0,0,7
20333396,4,0,7
20350032,1,0,7
20366672,4,0,7
20383316,0,0,7
20399960,100,1,7
20418676,361,9,7
20437404,100,16,7
20457156,0,0,7
20473792,1,1,7
20490444,9,0,7
20507072,64,0,7
20524756,25,1,7
20542416,0,1,7
20559072,0,0,7
20575712,0,0,7
20592352,0,0,7
20608988,4,0,7
20625636,4,1,7
20642272,1,1,7
20658916,1,1,7
20675548,4,0,7
20692196,0,1,7
20708836,4,0,7
20725460,0,0,7
20742100,4,1,7
20758756,1,0,7
20775392,0,0,7
20792036,4,0,7
20808668,25,1,7
20826356,25,4,7
20844032,0,0,7
20860672,1,1,7
20877316,1,1,7
20893960,16,0,7
20911644,9,0,7
20928276,0,0,7
20944920,0,0,7
20961548,0,0,7
20978192,0,0,7
20994840,9,1,7
21011476,16,4,7
21029148,0,0,7
21045804,1,1,7
21062436,0,4,7
21079084,1,1,7
21095708,0,0,7
21112364,1,1,7
21128992,1,0,7
21145644,1,0,7
21162284,1,0,7
21178908,0,0,7
21195552,1,0,7
21212196,0,0,7
21228836,9,1,7
21245480,9,0,7
21262116,0,0,7
21278760,1,0,7
21295400,1,0,7
21312036,1,1,7
21328664,16,0,7
21346356,64,1,7
21364032,9,0,7
21380664,0,0,7
21397312,9,0,7
21413964,25,1,7
21431644,1,4,7
21448264,16,0,7
21465956,9,0,7
21482592,0,1,7
21499236,0,1,7
21515872,9,0,7
21532516,25,4,7
21550192,4,4,7
21566828,0,0,7
21583464,0,0,7
21600108,1,0,7
21616760,4,0,7
21633404,0,0,7
21650036,1,0,7
21666676,1,0,7
21683328,1,1,7
21699948,0,1,7
21716588,0,1,7
21733228,4,4,7
21749880,9,1,7
21766520,1,0,7
21783144,9,0,7
21799792,1,0,7
21816428,1,0,7
21833076,4,1,7
21849712,0,0,7
21866356,1,1,7
21882992,25,0,7
21900672,1,1,7
21917312,0,1,7
21933948,0,1,7
21950596,0,4,7
21967236,0,0,7
21983864,0,0,7
22000516,0,0,7
22017148,0,0,7
22033796,0,4,7
22050428,0,9,7
22067076,0,0,7
22083724,1,1,7
22100352,0,0,7
22116980,0,0,7
22133632,1,0,7
22150284,1,0,7
22166928,0,0,7
22183552,1,0,7
22200192,9,0,7
22216844,9,0,7
22233484,1,4,7
22250116,4,1,7
22266756,4,0,7
22283396,0,0,7
22300040,1,1,7
22316672,0,0,7
22333312,1,0,7
22349964,9,1,7
22366604,1,0,7
22383224,0,0,7
22399872,1,0,7
22416524,1,1,7
22433152,4,0,7
22449796,1,0,7
22466436,25,0,7
22484128,49,0,7
22501800,4,0,7
22518428,0,1,7
22535068,16,0,7
22552764,36,4,7
22570436,9,4,7
22587072,4,0,7
22603708,1,4,7
22620364,0,1,7
22636992,1,0,7
22653632,1,0,7
22670268,0,0,7
22686920,0,1,7
22703556,0,0,7
22720192,0,0,7
22736824,0,0,7
22753472,0,1,7
22770120,4,0,7
22786756,1,0,7
22803396,0,0,7
22820044,4,0,7
22836672,1,0,7
22853312,0,0,7
22869948,0,0,7
22886592,0,0,7
22903220,0,0,7
22919864,0,1,7
22936496,0,1,7
22953152,0,0,7
22969784,0,0,7
22986436,0,0,7
23003068,0,0,7
23019724,1,0,7
23036352,1,0,7
23052988,0,0,7
23069628,1,0,7
23086276,0,0,7
23102912,4,0,7
23119556,1,0,7
23136188,4,0,7
23152832,0,4,7
23169476,4,1,7
23186112,1,0,7
23202744,1,1,7
23219396,9,0,7
23236036,4,0,7
23252664,0,0,7
23269300,4,1,7
23285964,1,1,7
23302588,1,0,7
23319232,4,0,7
23335864,1,0,7
23352516,1,0,7
23369156,4,1,7
23385788,0,1,7
23402428,4,0,7
23419076,4,0,7
23435716,1,0,7
23452344,0,0,7
23468980,1,1,7
23485632,0,0,7
23502276,0,0,7
23518904,16,4,7
23536588,1,1,7
23553236,9,1,7
23569876,9,1,7
23586512,0,0,7
23603148,1,0,7
23619792,0,0,7
23636424,0,1,7
23653064,0,0,7
23669700,0,0,7
23686364,0,0,7
23702992,0,0,7
23719632,0,0,7
23736256,0,0,7
23752920,9,0,7
23769552,4,0,7
23786192,0,0,7
23802816,0,0,7
23819468,0,0,7
23836104,0,0,7
23852756,1,1,7
23869388,0,0,7
23886044,9,0,7
23902668,1,0,7
23919304,0,0,7
23935936,0,0,7
23952592,1,0,7
23969236,1,0,7
23985876,1,0,7
24002512,4,1,7
24019160,1,0,7
24035792,1,0,7
24052428,0,1,7
24069068,0,0,7
24085724,4,1,7
24102348,4,1,7
24118996,1,0,7
24135628,0,0,7
24152280,0,0,7
24168916,9,4,7
24185552,1,16,7
24203232,1,1,7
24219868,0,0,7
24236504,0,0,7
24253148,0,0,7
24269780,0,1,7
24286436,1,1,7
24303072,0,0,7
24319716,1,0,7
24336336,0,0,7
24353004,1,1,7
24369632,1,1,7
24386272,0,0,7
24402896,1,0,7
24419556,4,0,7
24436196,4,0,7
24452832,4,0,7
24469468,1,0,7
24486112,1,0,7
24502752,0,0,7
24519396,0,1,7
24536024,4,0,7
24552676,0,1,7
24569316,0,0,7
24585952,9,0,7
24602584,1,0,7
24619236,1,0,7
24635876,4,0,7
24652516,0,1,7
24669144,1,1,7
24685804,9,0,7
24702436,4,0,7
24719076,1,0,7
24735712,4,1,7
24752348,0,0,7
24768984,9,0,7
24785636,36,0,7
24803312,9,1,7
24819964,1,1,7
24836596,1,1,7
24853232,0,1,7
24869868,0,1,7
24886512,0,0,7
24903144,0,0,7
24919792,4,0,7
24936424,16,1,7
24954120,9,1,7
24970740,1,0,7
24987392,4,0,7
25004024,0,0,7
25020676,0,0,7
25037316,1,1,7
25053956,4,1,7
25070588,1,1,7
25087232,0,0,7
25103868,0,1,7
25120516,0,0,7
25137148,0,0,7
25153796,0,1,7
25170436,1,1,7
25187076,4,1,7
25203708,0,0,7
25220364,1,0,7
25236996,0,0,7
25253636,0,1,7
25270268,4,0,7
25286920,1,0,7
25303556,0,0,7
25320196,25,0,7
25337880,81,1,7
25355560,9,1,7
25372196,0,0,7
25388832,1,0,7
25405480,4,0,7
25422112,0,0,7
25438760,4,0,7
25455392,4,0,7
25472040,1,0,7
25488672,1,0,7
25505320,4,0,7
25521956,0,0,7
25538604,0,0,7
25555236,0,0,7
25571880,0,0,7
25588516,1,1,7
25605152,4,0,7
25621796,0,0,7
25638440,1,0,7
25655060,0,0,7
25671712,0,0,7
25688356,4,0,7
25705004,9,0,7
25721632,1,0,7
25738272,1,0,7
25754912,9,0,7
25771564,1,0,7
25788192,0,0,7
25804840,1,0,7
25821484,1,0,7
25838120,0,0,7
25854748,9,1,7
25871396,1,1,7
25888032,1,0,7
25904680,4,1,7
25921316,0,1,7
25937952,0,0,7
25954592,0,0,7
25971232,0,0,7
25987872,0,1,7
26004512,0,0,7
26021160,0,0,7
26037800,1,0,7
26054420,9,0,7
26071072,4,0,7
26087712,4,0,7
26104364,1,0,7
26120996,1,0,7
26137636,0,0,7
26154276,9,0,7
26170916,1,1,7
26187548,0,1,7
26204204,1,0,7
26220844,1,0,7
26237484,4,0,7
26254116,36,0,7
26271804,9,0,7
26288432,1,0,7
26305076,1,4,7
26321712,4,4,7
26338356,25,0,7
26356032,25,0,7
26373716,9,1,7
26390344,0,0,7
26407004,4,0,7
26423632,9,0,7
26440276,1,0,7
26456912,9,0,7
26473556,16,1,7
26491232,4,0,7
26507868,4,0,7
26524512,1,0,7
26541160,1,0,7
26557804,1,0,7
26574436,0,0,7
26591064,0,0,7
26607720,1,0,7
26624360,1,0,7
26640992,1,0,7
26657624,0,0,7
26674272,0,0,7
26690912,0,0,7
26707552,1,0,7
26724192,4,0,7
26740836,4,0,7
26757476,0,0,7
26774108,0,1,7
26790756,1,1,7
26807392,4,0,7
26824040,1,0,7
26840664,0,0,7
26857312,0,0,7
26873952,0,0,7
26890592,1,0,7
26907224,1,0,7
26923864,0,0,7
26940508,0,0,7
26957156,1,0,7
26973792,0,0,7
26990440,0,0,7
27007072,0,0,7
27023724,1,4,7
27040348,0,4,7
27056984,1,0,7
27073644,1,0,7
27090284,1,0,7
27106908,0,0,7
27123556,4,0,7
27140196,1,0,7
27156848,1,0,7
27173472,4,0,7
27190116,9,0,7
27206752,0,0,7
27223400,1,0,7
27240024,1,0,7
27256668,4,0,7
27273312,0,0,7
27289952,0,1,7
27306588,4,1,7
27323236,4,0,7
27339888,1,1,7
27356524,1,0,7
27373152,4,4,7
27389796,4,1,7
27406436,0,1,7
27423072,0,0,7
27439700,0,0,7
27456344,4,0,7
27473000,25,1,7
27490672,9,1,7
27507304,0,0,7
27523944,0,1,7
27540608,4,1,7
27557240,1,0,7
27573864,0,0,7
27590512,1,1,7
27607152,1,0,7
27623792,0,0,7
27640424,1,0,7
27657076,4,0,7
27673724,0,0,7
27690348,0,0,7
27706980,0,0,7
27723624,4,0,7
27740272,0,0,7
27756924,0,0,7
27773560,0,0,7
27790192,1,0,7
27806828,1,0,7
27823472,0,0,7
27840112,1,0,7
27856748,4,1,7
27873400,0,1,7
27890036,0,0,7
27906664,0,0,7
27923312,0,0,7
27939948,0,0,7
27956592,1,0,7
27973232,1,0,7
27989872,1,0,7
28006512,0,0,7
28023160,4,0,7
28039796,36,1,7
28057476,4,1,7
28074120,4,0,7
28090756,9,0,7
28107392,1,0,7
28124024,0,0,7
28140672,0,0,7
28157312,1,1,7
28173956,1,1,7
28190592,1,1,7
28207232,0,0,7
28223868,1,0,7
28240516,4,1,7
28257156,0,0,7
28273796,0,0,7
28290432,0,0,7
28307076,1,0,7
28323716,4,0,7
28340360,4,1,7
28357004,4,0,7
28373624,0,0,7
28390276,16,0,7
28407956,9,0,7
28424592,0,0,7
28441232,0,0,7
28457880,4,1,7
28474516,25,1,7
28492208,36,1,7
28509876,1,1,7
28526508,0,0,7
28543152,0,0,7
28559796,1,1,7
28576424,0,0,7
28593064,1,0,7
28609720,4,0,7
28626356,1,1,7
28642996,0,1,7
28659624,1,0,7
28676272,0,0,7
28692912,1,0,7
28709552,4,0,7
28726180,0,0,7
28742844,4,0,7
28759468,16,1,7
28777156,4,0,7
28793788,4,0,7
28810432,4,0,7
28827060,1,0,7
28843712,0,0,7
28860348,0,1,7
28876996,0,1,7
28893632,0,0,7
28910272,0,0,7
28926904,0,0,7
28943552,0,0,7
28960188,0,0,7
28976836,0,0,7
28993468,0,1,7
29010120,1,0,7
29026740,0,0,7
29043392,1,0,7
29060028,4,1,7
29076676,16,4,7
29094352,9,0,7
29110984,0,0,7
29127628,0,4,7
29144280,1,0,7
29160912,1,0,7
29177544,0,0,7
29194188,0,0,7
29210832,0,0,7
29227476,1,0,7
29244112,0,0,7
29260740,0,0,7
29277400,4,0,7
29294036,1,0,7
29310672,4,0,7
29327308,16,0,7
29345000,1,1,7
29361624,0,0,7
29378272,1,0,7
29394900,0,0,7
29411560,4,0,7
29428192,9,0,7
29444820,4,0,7
29461472,1,0,7
29478112,0,1,7
29494748,0,1,7
29511396,1,0,7
29528024,0,0,7
29544664,0,0,7
29561300,0,0,7
29577940,0,0,7
29594580,0,0,7
29611248,0,0,7
29627876,0,0,7
29644512,1,0,7
29661144,0,0,7
29677792,0,0,7
29694420,0,0,7
29711076,1,0,7
29727712,1,0,7
29744352,0,0,7
29760988,0,0,7
29777636,4,0,7
29794268,1,0,7
29810924,1,0,7
29827552,1,0,7
29844184,0,0,7
29860816,0,0,7
29877468,0,0,7
29894108,0,0,7
29910760,0,0,7
29927380,1,0,7
29944028,0,0,7
29960672,1,1,7
29977312,1,1,7
29993948,1,0,7
30010588,1,0,7
30027224,0,0,7
30043872,0,1,7
30060496,0,0,1
30077156,1,0,1
30093792,1,0,1
30110436,1,0,1
30127064,1,0,1
30143712,0,0,1
30160352,1,0,1
30176992,9,0,1
30193632,4,0,1
30210276,0,0,1
30226916,0,0,1
30243556,0,1,1
30260188,0,0,1
30276832,0,1,1
30293468,0,1,1
30310116,4,0,1
30326748,16,0,1
30344436,0,1,1
30361064,0,0,1
30377716,0,0,1
30394352,1,0,1
30410992,0,0,1
30427640,1,1,1
30444272,1,0,1
30460908,0,0,1
30477568,1,1,1
30494196,0,0,1
30510836,0,0,1
30527464,0,0,1
30544108,4,0,1
30560744,0,0,1
30577396,1,0,1
30594020,0,0,1
30610676,0,0,1
30627304,0,0,1
30643948,1,0,1
30660576,0,0,1
30677232,4,0,1
30693876,16,1,1
30711552,1,0,1
30728184,0,1,1
30744832,1,0,1
30761472,1,0,1
30778116,0,0,1
30794744,0,0,1
30811392,0,0,1
30828032,1,0,1
30844676,1,0,1
30861304,1,0,1
30877952,1,0,1
30894588,1,0,1
30911232,0,0,1
30927864,1,0,1
30944512,4,0,1
30961140,1,0,1
30977784,0,0,1
30994416,0,0,1
31011084,1,0,1
31027708,0,1,1
31044352,1,1,1
31060984,1,0,1
31077636,1,0,1
31094268,4,0,1
31110908,0,0,1
31127544,1,0,1
31144196,1,1,1
31160824,0,0,1
31177464,4,0,1
31194100,16,0,1
31211792,4,0,1
31228444,0,0,1
31245076,1,0,1
31261716,0,1,1
31278356,4,0,1
31295004,4,0,1
31311640,0,1,1
31328276,0,1,1
31344916,4,1,1
31361564,4,1,1
31378184,4,1,1
31394836,1,4,1
31411484,1,1,1
31428120,0,0,1
31444748,1,0,1
31461388,0,0,1
31478036,1,0,1
31494676,4,0,1
31511316,0,0,1
31527956,0,0,1
31544596,0,0,1
31561228,0,0,1
31577864,0,0,1
31594512,0,0,1
31611152,0,0,1
31627804,0,1,1
31644432,0,1,1
31661072,0,0,1
31677712,0,0,1
31694364,1,0,1
31710996,1,0,1
31727632,0,0,1
31744280,4,0,1
31760924,25,1,1
31778596,36,4,1
31796276,0,1,1
31812912,4,0,1
31829552,1,0,1
31846196,64,1,1
31863888,100,4,1
31882604,16,1,1
31900272,0,1,1
31916916,1,1,1
31933548,1,0,1
31950208,36,1,1
31967876,169,4,1
31986588,144,1,1
32005316,16,1,1
32022988,289,4,1
32041716,64,16,1
32060444,1,0,1
32077072,36,0,1
32094772,1,0,1
32111396,81,25,1
32130112,0,16,1
32147796,49,1,1
32165468,4,0,1
32182116,9,9,1
32198760,1,0,1
32215396,16,0,1
32233076,9,0,1
32249716,4,0,1
32266368,16,1,1
32284040,144,9,1
32302748,81,9,1
32320428,0,4,1
32337084,1,0,1
32353712,25,0,1
32371388,64,1,1
32389064,16,0,1
32406760,0,1,1
32423388,16,0,1
32441072,0,1,1
32457720,9,0,1
32474368,1,0,1
32490992,16,1,1
32508668,16,1,1
32526360,1,0,1
32542996,121,1,1
32561708,144,16,1
32581476,36,1,1
32599164,0,0,1
32615792,25,0,1
32633464,0,0,1
32650108,36,0,1
32667796,9,1,1
32684440,49,1,1
32702116,81,1,1
32719788,25,0,1
32737472,16,0,1
32755156,16,0,1
32772828,25,1,1
32790500,25,0,1
32808196,25,9,1
32825880,4,0,1
32842504,36,4,1
32860192,4,0,1
32876844,1,0,1
32893484,9,1,1
32910120,36,9,1
32927796,1,1,1
32944432,0,0,1
32961072,4,0,1
32977716,16,1,1
32995388,1,0,1
33012036,1,1,1
33028676,1,1,1
33045300,0,0,1
33061956,0,1,1
33078592,16,0,1
33096272,9,0,1
33112904,9,0,1
33129556,25,0,1
33147236,1,0,1
33163876,16,0,1
33181556,64,1,1
33199240,1,0,1
33215872,1,1,1
33232512,36,1,1
33250200,81,4,1
33267876,16,1,1
33285556,25,1,1
33303232,64,1,1
33320912,100,9,1
33339636,36,4,1
33357316,1,0,1
33373944,0,0,1
33390580,16,0,1
33408276,25,0,1
33425952,4,1,1
33442592,16,0,1
33460280,49,0,1
33477956,49,1,1
33495636,36,1,1
33513316,9,0,1
33529960,100,1,1
33548680,25,1,1
33566348,0,0,1
33582984,0,0,1
33599632,1,0,1
33616284,1,0,1
33632912,0,0,1
33649552,0,0,1
33666204,1,0,1
33682832,0,0,1
33699472,4,1,1
33716112,1,0,1
33732752,4,0,1
33749396,0,1,1
33766028,4,1,1
33782672,25,0,1
33800352,144,4,1
33819068,36,1,1
33836744,0,0,1
33853392,4,0,1
33870036,100,1,1
33888744,64,4,1
33906432,16,1,1
33924112,9,0,1
33940764,25,0,1
33958444,16,0,1
33976112,0,0,1
33992752,0,0,1
34009396,4,0,1
34026040,9,4,1
34042676,0,0,1
34059316,49,1,1
34076996,49,1,1
34094672,9,0,1
34111312,1,0,1
34127960,1,0,1
34144604,0,0,1
34161232,0,4,1
34177872,1,1,1
34194512,1,0,1
34211156,0,1,1
34227784,1,0,1
34244428,1,1,1
34261080,0,1,1
34277720,0,0,1
34294352,1,1,1
34310996,0,0,1
34327636,0,0,1
34344276,0,1,1
34360912,0,1,1
34377548,0,0,1
34394192,9,0,1
34410832,25,0,1
34428516,9,0,1
34445152,0,0,1
34461792,0,0,1
34478436,0,1,1
34495076,16,1,1
34512744,16,4,1
34530444,9,0,1
34547072,1,0,1
34563716,9,1,1
34580356,4,1,1
34597000,1,0,1
34613632,4,1,1
34630268,4,4,1
34646916,4,0,1
34663564,4,0,1
34680192,0,0,1
34696836,1,0,1
34713468,0,0,1
34730116,1,0,1
34746756,16,0,1
34764436,4,0,1
34781080,0,0,1
34797716,0,0,1
34814352,0,0,1
34830992,0,0,1
34847636,9,1,1
34864276,4,0,1
34880924,1,0,1
34897552,36,0,1
34915232,16,1,1
34932916,1,1,1
34949552,0,0,1
34966192,0,0,1
34982828,1,0,1
34999472,0,1,1
35016116,1,0,1
35032752,0,0,1
35049384,4,0,1
35066044,9,4,1
35082680,1,1,1
35099312,9,0,1
35115948,49,0,1
35133644,16,1,1
35151312,0,0,1
35167956,16,0,1
35185632,9,0,1
35202288,0,0,1
35218916,4,0,1
35235544,9,0,1
35252188,9,1,1
35268844,16,1,1
35286508,9,1,1
35303156,1,0,1
35319784,25,0,1
35337480,16,0,1
35355164,9,4,1
35371796,1,9,1
35388436,0,1,1
35405080,9,0,1
35421720,49,1,1
35439388,64,4,1
35457088,196,9,1
35475800,49,4,1
35493484,1,0,1
35510116,4,0,1
35526756,25,4,1
35544436,16,1,1
35562108,36,4,1
35579796,64,9,1
35597476,4,4,1
35614112,16,0,1
35631784,16,16,1
35650512,1,16,1
35668204,1,4,1
35684824,0,0,1
35701468,1,0,1
35718112,4,0,1
35734756,9,0,1
35751384,0,0,1
35768036,1,4,1
35784672,4,9,1
35801312,9,1,1
35817952,1,4,1
35834584,0,9,1
35851216,0,4,1
35867880,4,0,1
35884516,64,1,1
35902192,81,1,1
35919860,81,1,1
35937564,36,0,1
35955240,0,0,1
35971864,4,0,1
35988516,1,0,1
36005164,9,1,1
36021796,9,9,1
36038428,0,4,1
36055080,1,0,1
36071712,0,0,1
36088364,9,0,1
36104984,100,0,1
36123720,49,1,1
36141396,1,0,1
36158032,25,0,1
36175716,49,4,1
36193392,16,1,1
36211076,16,1,1
36228756,1,0,1
36245396,4,1,1
36262036,9,0,1
36278676,4,0,1
36295312,1,0,1
36311948,36,0,1
36329636,4,0,1
36346280,1,0,1
36362908,0,1,1
36379548,9,0,1
36396196,36,9,1
36413876,36,4,1
36431560,0,0,1
36448180,0,0,1
36464848,1,0,1
36481476,0,0,1
36498116,0,0,1
36514740,9,0,1
36531404,1,0,1
36548032,1,0,1
36564676,0,0,1
36581304,1,0,1
36597960,1,0,1
36614580,0,0,1
36631224,0,0,1
36647860,1,1,1
36664516,0,1,1
36681152,0,0,1
36697796,1,1,1
36714432,9,1,1
36731076,9,1,1
36747708,0,0,1
36764352,9,0,1
36780984,9,0,1
36797632,1,0,1
36814276,16,0,1
36831944,9,0,1
36848584,0,1,1
36865244,1,1,1
36881864,25,0,1
36899556,1,1,1
36916188,0,0,1
36932832,0,0,1
36949472,0,0,1
36966116,1,1,1
36982748,0,4,1
36999400,1,0,1
37016024,9,0,1
37032664,0,0,1
37049308,0,1,1
37065952,0,0,1
37082596,4,0,1
37099232,1,0,1
37115864,0,0,1
37132528,0,0,1
37149152,0,0,1
37165784,1,0,1
37182420,1,0,1
37199072,0,0,1
37215712,1,0,1
37232344,1,0,1
37248980,0,0,1
37265640,4,0,1
37282260,4,0,1
37298912,1,0,1
37315552,16,4,1
37333236,4,1,1
37349864,0,0,1
37366512,64,1,1
37384180,169,9,1
37402916,25,4,1
37420600,16,1,1
37438276,16,4,1
37455956,100,4,1
37474684,169,1,1
37493392,0,4,1
37510032,25,0,1
37527708,1,0,1
37544352,0,0,1
37560992,4,0,1
37577632,16,1,1
37595316,0,0,1
37611952,9,0,1
37628592,16,1,1
37646272,9,1,1
37662920,0,1,1
37679556,1,0,1
37696196,1,0,1
37712824,0,0,1
37729472,4,0,1
37746116,25,1,1
37763788,0,0,1
37780432,4,0,1
37797084,9,0,1
37813716,4,0,1
37830340,0,0,1
37846988,1,0,1
37863648,36,1,1
37881316,9,0,1
37897948,1,0,1
37914592,1,0,1
37931232,4,0,1
37947868,0,0,1
37964508,4,0,1
37981144,16,1,1
37998840,0,1,1
38015472,4,0,1
38032112,36,1,1
38049788,16,4,1
38067476,0,1,1
38084124,1,0,1
38100756,4,0,1
38117404,4,1,1
38134044,1,0,1
38150688,64,1,1
38168360,36,4,1
38186040,1,0,1
38202672,1,0,1
38219308,4,1,1
38235944,9,0,1
38252604,4,0,1
38269232,0,0,1
38285872,1,0,1
38302508,0,1,1
38319152,4,4,1
38335792,0,0,1
38352428,0,1,1
38369064,0,1,1
38385708,0,0,1
38402352,0,0,1
38418996,9,1,1
38435628,16,1,1
38453316,4,1,1
38469956,0,0,1
38486596,25,0,1
38504276,16,1,1
38521952,4,0,1
38538596,0,1,1
38555228,0,1,1
38571876,25,0,1
38589564,4,1,1
38606200,1,0,1
38622832,4,1,1
38639468,0,1,1
38656116,0,1,1
38672760,1,1,1
38689384,0,0,1
38706032,0,0,1
38722684,4,0,1
38739320,1,0,1
38755956,0,0,1
38772592,1,0,1
38789232,16,0,1
38806912,4,1,1
38823556,0,0,1
38840196,0,1,1
38856836,0,0,1
38873472,0,0,1
38890112,0,0,1
38906756,1,1,1
38923416,1,1,1
38940036,100,1,1
38958748,36,4,1
38976420,0,0,1
38993072,49,0,1
39010752,121,9,1
39029472,9,0,1
39046096,0,0,1
39062756,4,1,1
39079396,16,1,1
39097064,0,0,1
39113696,16,0,1
39131404,49,0,1
39149076,49,4,1
39166748,4,0,1
39183400,1,0,1
39200040,4,0,1
39216680,4,0,1
39233308,4,0,1
39249952,16,0,1
39267640,4,0,1
39284264,0,0,1
39300908,0,0,1
39317560,0,1,1
39334196,9,1,1
39350828,49,0,1
39368516,25,1,1
39386200,1,0,1
39402832,0,0,1
39419476,1,0,1
39436116,4,0,1
39452764,36,0,1
39470440,100,4,1
39489152,1,0,1
39505792,1,1,1
39522432,1,0,1
39539072,0,0,1
39555716,1,0,1
39572360,4,1,1
39588996,64,9,1
39606672,25,1,1
39624356,1,0,1
39640988,1,0,1
39657632,0,0,1
39674284,4,1,1
39690916,9,1,1
39707552,1,0,1
39724200,0,0,1
39740840,1,0,1
39757464,1,0,1
39774108,4,0,1
39790752,0,0,1
39807404,4,0,1
39824032,0,0,1
39840660,4,0,1
39857316,0,0,1
39873956,0,0,1
39890596,16,1,1
39908272,81,4,1
39925964,25,4,1
39943636,0,0,1
39960272,9,0,1
39976908,36,0,1
39994596,25,1,1
40012268,1,0,1
40028912,1,1,1
40045544,1,0,1
40062204,1,1,4
40078824,0,0,4
40095468,0,0,4
40112104,0,1,4
40128756,0,0,4
40145392,4,0,4
40162036,1,1,4
40178668,1,1,4
40195320,9,0,4
40211948,9,0,4
40228584,0,0,4
40245216,0,0,4
40261872,0,0,4
40278508,0,0,4
40295156,4,0,4
40311792,9,0,4
40328440,4,0,4
40345064,0,0,4
40361712,1,0,4
40378352,1,0,4
40394992,4,0,4
40411628,9,0,4
40428268,4,0,4
40444896,4,1,4
40461552,0,0,4
40478196,4,0,4
40494836,0,0,4
40511460,0,0,4
40528120,4,1,4
40544760,1,4,4
40561396,0,0,4
40578024,16,0,4
40595720,25,1,4
40613404,1,1,4
40630024,16,0,4
40647720,49,0,4
40665400,9,0,4
40682036,0,0,4
40698676,4,1,4
40715316,4,1,4
40731952,9,1,4
40748588,36,1,4
40766268,9,4,4
40782920,4,0,4
40799560,1,1,4
40816188,0,0,4
40832824,0,0,4
40849480,0,1,4
40866112,0,0,4
40882756,1,0,4
40899392,0,0,4
40916032,0,0,4
40932676,0,0,4
40949312,9,0,4
40965948,36,0,4
40983636,4,0,4
41000280,0,1,4
41016916,4,0,4
41033548,1,0,4
41050188,0,0,4
41066832,0,0,4
41083472,0,0,4
41100112,1,0,4
41116760,4,1,4
41133400,0,1,4
41150032,1,0,4
41166676,1,0,4
41183320,1,0,4
41199948,1,0,4
41216596,9,0,4
41233232,16,0,4
41250912,4,0,4
41267560,1,0,4
41284196,9,0,4
41300832,1,0,4
41317472,0,0,4
41334112,9,0,4
41350752,9,0,4
41367396,0,1,4
41384032,0,0,4
41400668,0,0,4
41417312,1,0,4
41433952,1,0,4
41450592,1,0,4
41467232,0,0,4
41483868,0,0,4
41500512,0,0,4
41517152,0,0,4
41533796,0,0,4
41550432,1,1,4
41567076,4,1,4
41583712,49,0,4
41601392,25,0,4
41619084,0,0,4
41635720,16,1,4
41653404,1,1,4
41670032,0,0,4
41686668,0,1,4
41703312,9,0,4
41719960,0,0,4
41736592,1,0,4
41753232,1,0,4
41769876,9,0,4
41786520,1,0,4
41803164,1,1,4
41819796,0,1,4
41836432,25,0,4
41854116,81,1,4
41871796,49,4,4
41889472,16,0,4
41907148,1,0,4
41923804,1,0,4
41940436,0,0,4
41957088,1,4,4
41973708,36,16,4
41992436,25,0,4
42010104,0,0,4
42026756,0,1,4
42043416,1,1,4
42060044,49,16,4
42078768,81,9,4
42096436,64,4,4
42114124,256,9,4
42132848,0,4,4
42149472,144,81,4
42169236,4,16,4
42186924,36,16,4
42205636,25,4,4
42223320,64,9,4
42240984,625,9,4
42259724,1225,1,4
42279476,16129,144,4
42302328,19044,196,4
42325180,16129,5625,4
42349152,0,0,4
42365764,0,0,4
42382424,3364,15376,4
42406320,0,625,4
42425028,10000,144,4
42447940,4,49,4
42465620,0,36,4
42483280,0,6561,4
42503036,0,2116,4
42522800,16,1936,4
42543616,26244,2025,4
42567520,0,1681,4
42587304,784,3844,4
42609140,4900,441,4
42630988,18769,6084,4
42654892,0,0,4
42671524,0,0,4
42688180,100,20164,4
42711056,1369,17689,4
42734972,1444,19321,4
42758896,100,2704,4
42780724,4761,24025,4
42804648,7569,0,4
42824404,10201,1681,4
42848320,1024,0,4
42868088,841,6241,4
42889928,529,4,4
42908660,3249,121,4
42930504,1089,14884,4
42954416,12100,17161,4
42979384,28224,18225,4
43004320,0,0,4
43020972,100,27556,4
43043856,841,9025,4
43065684,576,576,4
43086492,441,12100,4
43109352,3600,10816,4
43133304,5041,1600,4
43156180,961,7056,4
43178020,24336,22801,4
43202972,3844,361,4
43224828,2116,529,4
43246648,3844,16,4
43267468,441,3844,4
43289296,2704,576,4
43311156,196,0,4
43329872,1156,3249,4
43352720,16900,5329,4
43376676,32761,361,4
43399548,0,12996,4
43420328,1681,0,4
43440088,15876,12321,4
43465072,8100,25,4
43485860,0,2116,4
43505604,21904,4225,4
43529552,36,16,4
43548268,4900,2116,4
43571140,6561,2116,4
43594024,20449,25,4
43615864,6400,4225,4
43638736,0,400,4
43657464,9216,144,4
43679296,18769,2916,4
43703232,2064,5329,4
43726108,15129,7056,4
43750020,6084,2401,4
43772908,36,49,4
43791624,6084,4,4
43811380,1024,4,4
43831140,324,14884,4
43854024,2209,32400,4
43877928,19044,6889,4
43901856,9409,196,4
43923700,5329,841,4
43945528,256,5329,4
43967384,64,6241,4
43988192,676,400,4
44008992,2304,36,4
44029784,2916,1600,4
44052668,7569,1681,4
44075560,2116,841,4
44097380,361,729,4
44118196,8281,484,4
44140016,12544,1089,4
44163936,20449,3481,4
44187856,4356,1444,4
44210744,676,10201,4
44233616,1,21025,4
44254416,24964,3025,4
44278344,12100,2809,4
44302272,4356,16,4
44323068,2500,64,4
44343848,0,784,4
44362580,0,1225,4
44382352,1521,196,4
44404172,3249,1444,4
44427052,1156,729,4
44448896,7921,3364,4
44471772,29929,2209,4
44495708,32400,4356,4
44519648,9,25,4
44537292,10609,1849,4
44561208,81,36,4
44579960,169,1600,4
44601752,14400,6889,4
44625708,32433,25921,4
44650660,4160,15876,4
44674596,289,5184,4
44696428,1024,25,4
44717216,9025,3025,4
44740112,10000,4489,4
44764012,28224,16,4
44785848,0,6724,4
44805632,17924,8100,4
44829536,0,8464,4
44849304,144,4096,4
44871140,10000,1156,4
44895056,15120,0,4
44915880,0,3969,4
44935612,0,2025,4
44955384,3969,784,4
44977228,36,400,4
44996996,1521,25,4
45017772,2209,784,4
45039608,121,6084,4
45061452,1024,3600,4
45084340,6889,961,4
45106204,2209,3025,4
45129072,81,64,4
45147780,324,1225,4
45169620,21609,9,4
45190420,0,729,4
45209148,16,9,4
45226816,10404,484,4
45249712,1764,1156,4
45272596,484,841,4
45293392,10816,225,4
45316276,31329,4,4
45337048,18225,0,4
45357868,1296,169,4
45379700,4489,64,4
45400516,1024,1,4
45420264,676,1089,4
45442116,324,1764,4
45463960,0,196,4
45482672,2209,9,4
45502404,8281,49,4
45523220,64,4096,4
45544020,5041,5776,4
45566888,144,484,4
45587704,361,36,4
45607456,9,1156,4
45627220,324,2704,4
45649060,2809,900,4
45670896,1600,2704,4
45693788,0,289,4
45712504,1296,1024,4
45735376,13924,784,4
45758244,16641,16,4
45780104,1521,3136,4
45802992,28561,1089,4
45826904,0,1369,4
45846660,1764,3364,4
45869544,13225,2601,4
45893464,10201,196,4
45916348,4624,81,4
45937136,3025,1296,4
45960028,0,441,4
45978744,2585,1024,4
46001620,289,225,4
46022432,0,144,4
46041140,2601,121,4
46062996,2704,1,4
46082752,961,169,4
46103532,6724,49,4
46124348,1089,196,4
46146180,81,100,4
46165936,81,0,4
46183640,3481,1,4
46203376,4624,400,4
46225232,529,676,4
46246024,961,1156,4
46267856,8649,7744,4
46290720,29584,1296,4
46314676,961,196,4
46335452,6241,2025,4
46358332,9604,5625,4
46381224,2601,5625,4
46404112,64,529,4
46423868,4900,16,4
46444664,17161,225,4
46467532,3844,256,4
46489380,4,196,4
46508112,1024,1444,4
46530984,256,1444,4
46552836,625,1849,4
46574672,225,1296,4
46596524,13225,4,4
46617300,0,2401,4
46637040,25281,5625,4
46660992,3364,1156,4
46683868,16,289,4
46703640,0,1,4
46720276,6084,1521,4
46743128,0,2704,4
46762900,20449,169,4
46785792,225,5041,4
46807624,2116,6084,4
46830504,15129,576,4
46853372,0,3249,4
46873132,0,4900,4
46892900,9801,196,4
46914728,1764,100,4
46936588,5476,225,4
46958424,3108,1225,4
46981312,32041,4761,4
47005220,2209,1600,4
47028104,4,1521,4
47047876,2809,5625,4
47070736,0,576,4
47089460,11664,961,4
47112336,3136,196,4
47134176,4489,2500,4
47157056,49,441,4
47176824,256,1,4
47195524,1225,1600,4
47218408,4761,4225,4
47241308,10201,64,4
47263156,484,484,4
47283932,49,961,4
47303708,25,3249,4
47324512,1444,625,4
47346332,256,1225,4
47368180,9409,2209,4
47391076,29929,9,4
47411852,22201,0,4
47432648,784,64,4
47452432,729,1,4
47471136,900,484,4
47491940,1369,289,4
47513788,3969,64,4
47534572,6561,36,4
47555392,784,121,4
47576192,1296,484,4
47598012,1444,2916,4
47620900,1521,169,4
47642744,169,5041,4
47664588,2025,3136,4
47687452,0,2116,4
47707216,25921,3249,4
47731148,2116,121,4
47752976,1225,36,4
47773776,1225,256,4
47795604,1225,64,4
47816420,3136,2209,4
47839300,30625,8281,4
47863216,14400,7921,4
47887148,2809,81,4
47907956,121,16,4
47927712,4761,484,4
47949540,19881,169,4
47972428,14641,1156,4
47996324,144,196,4
48017136,0,5929,4
48036900,0,196,4
48055640,1444,196,4
48077476,0,3025,4
48097212,6569,1849,4
48120104,0,4096,4
48139848,0,6724,4
48159620,29929,1296,4
48183564,169,64,4
48203300,18225,16,4
48225128,1764,49,4
48245952,1681,36,4
48266736,4761,36,4
48287548,8100,0,4
48307324,6724,1,4
48327068,11664,36,4
48348896,32041,1156,4
48372812,15376,2809,4
48396736,30976,3721,4
48420648,32041,2601,4
48444584,4624,676,4
48466408,14161,841,4
48489308,1444,2116,4
48512172,4489,196,4
48534024,169,256,4
48554816,36,1089,4
48575624,6084,2601,4
48598508,16384,2401,4
48622424,1681,10609,4
48646340,1600,1936,4
48669208,1600,3844,4
48692088,2916,6241,4
48714988,144,121,4
48735792,49,441,4
48755540,2500,4,4
48775288,3721,2304,4
48798176,361,3481,4
48820008,1024,1849,4
48842904,3969,256,4
48864716,21609,3025,4
48888648,0,729,4
48907384,16129,1369,4
48931292,2401,361,4
48953140,25,144,4
48972912,1681,1600,4
48995792,144,289,4
49016572,10404,961,4
49039456,225,3364,4
49061296,5625,256,4
49083136,1600,529,4
49104992,5776,1225,4
49127864,24464,25,4
49149708,17985,7744,4
49173608,0,1764,4
49193392,21489,9,4
49214180,29945,9604,4
49238096,25600,14161,4
49263072,1,2209,4
49282824,5476,400,4
49304664,30276,4,4
49325464,81,169,4
49345232,11236,3969,4
49369144,7921,3844,4
49392028,841,441,4
49412820,6084,121,4
49434656,25600,81,4
49456508,289,144,4
49477304,4624,36,4
49498100,25,81,4
49516820,3136,400,4
49538660,400,0,4
49557380,729,289,4
49578192,441,576,4
49598988,1369,1,4
49618736,2116,225,4
49640592,2500,1,4
49660336,676,1024,4
49682180,49,2809,4
49702992,16,1369,4
49723792,1296,625,4
49745620,729,576,4
49766416,2116,81,4
49787224,841,1600,4
49809056,9409,3721,4
49831924,17689,289,4
49854828,576,1444,4
49876672,64,1444,4
49897460,49,676,4
49917220,289,0,4
49935952,9,100,4
49954668,484,1936,4
49976512,676,1089,4
49998356,121,361,4
50019136,1024,400,4
50041004,2116,1089,4
50063860,12769,2601,7
50087780,29929,121,7
50110664,13924,1936,7
50134576,2916,1600,7
50157440,13924,625,7
50180348,9216,196,7
50202180,9604,484,7
50224012,0,1444,7
50243800,16641,64,7
50265636,196,36,7
50285384,1024,25,7
50306180,121,49,7
50325936,144,36,7
50345704,196,0,7
50364396,2025,25,7
50385228,64,9,7
50402896,121,100,7
50423712,841,64,7
50443460,1225,400,7
50465312,900,3025,7
50487140,1,784,7
50505876,961,225,7
50526652,6084,1024,7
50549540,2809,576,7
50571384,256,1369,7
50593208,8464,6084,7
50616096,12769,4489,7
50640016,4900,49,7
50660836,9,625,7
50679532,6400,676,7
50701400,9,576,7
50720104,3249,1600,7
50742980,1089,2401,7
50765860,1,2025,7
50785624,169,2304,7
50807460,729,289,7
50828248,361,289,7
50849060,1521,1225,7
50871944,961,16,7
50891704,3249,49,7
50912504,324,9,7
50931244,3249,4,7
50950992,361,484,7
50971784,1156,121,7
50993620,0,841,7
51012332,0,2601,7
51032108,11664,1521,7
51056032,961,1024,7
51077864,4,16,7
51095536,2025,1156,7
51118424,784,121,7
51139192,20449,1089,7
51163128,0,1600,7
51182900,121,4,7
51201628,361,625,7
51222412,11449,484,7
51245324,676,256,7
51266100,22201,4225,7
51290012,26569,441,7
51312900,0,25,7
51330576,6084,2916,7
51353452,3721,900,7
51375308,1156,1,7
51395052,361,196,7
51415860,676,49,7
51435640,9,289,7
51454368,256,676,7
51475148,625,169,7
51495956,1521,256,7
51517784,13924,324,7
51540656,4689,2209,7
51563512,17161,961,7
51586424,8100,3249,7
51609300,2401,6084,7
51632172,0,27889,7
51652988,25921,1681,7
51676892,20449,20164,7
51701844,16900,0,7
51722660,8464,361,7
51744508,2809,11664,7
51768436,36,100,7
51788180,5184,7921,7
51811068,144,4,7
51829772,2209,2916,7
51852668,400,3844,7
51874500,49,4356,7
51895308,25,676,7
51915072,16,3249,7
51935868,25,361,7
51955640,0,529,7
51974344,1156,225,7
51996176,1600,961,7
52018016,4,4096,7
52037800,49,1849,7
52058584,256,361,7
52079388,16,961,7
52099152,64,1444,7
52119940,484,7396,7
52141800,1600,2401,7
52164676,0,4,7
52181312,225,0,7
52200024,324,4,7
52218736,18769,196,7
52241620,28900,5929,7
52265548,2209,1936,7
52288408,11881,9025,7
52312320,21489,17161,7
52337292,25921,2704,7
52361200,11236,1764,7
52385140,784,2809,7
52406976,3481,9,7
52426732,3025,625,7
52448580,25600,2025,7
52472500,26569,2500,7
52496416,4096,2500,7
52519300,5041,900,7
52541136,729,289,7
52561948,324,36,7
52581708,9,256,7
52600416,400,144,7
52621220,169,361,7
52642036,36,49,7
52660756,36,400,7
52680516,9,484,7
52699244,100,49,7
52719000,225,49,7
52738752,841,0,7
52757456,6400,81,7
52778276,7225,841,7
52800104,484,1089,7
52821948,484,225,7
52842756,729,49,7
52862504,1,0,7
52879156,400,144,7
52899952,121,1024,7
52921788,529,400,7
52942588,784,9,7
52961312,16,9,7
52979000,729,36,7
52998756,0,64,7
53016420,361,16,7
53036192,289,121,7
53056968,10816,2916,7
53080908,8464,2809,7
53103796,64,25,7
53122520,25,16,7
53141236,1,81,7
53158924,1,9,7
53175548,3025,1,7
53195308,2601,169,7
53217156,484,144,7
53237968,784,16,7
53257708,729,0,7
53276420,676,256,7
53297232,3249,256,7
53319076,729,4,7
53337780,1296,9,7
53357536,1849,400,7
53379396,1681,900,7
53401232,25,1089,7
53422028,0,144,7
53440768,25,196,7
53460528,0,484,7
53479244,36,25,7
53497956,81,16,7
53516680,25,1,7
53534360,49,324,7
53554104,9,1024,7
53573876,49,625,7
53593632,324,324,7
53614432,324,144,7
53635228,625,400,7
53656036,49,289,7
53675796,400,256,7
53696596,121,81,7
53716368,289,81,7
53736116,289,49,7
53755860,81,0,7
53773536,676,0,7
53792284,961,361,7
53813084,49,121,7
53832832,36,169,7
53852584,25,1,7
53870264,4,1,7
53886900,121,9,7
53905640,9,0,7
53922280,4,0,7
53938916,1,9,7
53955548,9,36,7
53973232,0,2304,7
53992988,256,3600,7
54014840,400,1225,7
54036680,49,361,7
54056432,121,169,7
54077224,100,81,7
54096988,576,9,7
54115728,2025,1,7
54135476,484,25,7
54155236,4,49,7
54172924,36,961,7
54192676,100,1521,7
54214516,121,289,7
54235312,64,361,7
54255056,196,121,7
54275848,7744,961,7
54297708,9604,1764,7
54320596,2025,0,7
54340360,25,25,7
54359076,0,361,7
54377804,0,49,7
54395476,196,441,7
54416268,144,196,7
54437088,1,1,7
54453712,49,9,7
54471392,100,64,7
54491168,0,1,7
54507804,169,36,7
54527568,16,4,7
54545232,25,1,7
54562904,256,16,7
54582680,225,4,7
54601396,16,64,7
54620108,64,4,7
54637804,0,16,7
54655476,144,25,7
54675240,196,25,7
54695004,4,25,7
54712672,441,64,7
54732420,1024,676,7
54754268,4,961,7
54773004,16,576,7
54792740,0,676,7
54811472,121,289,7
54832280,361,196,7
54853072,121,256,7
54873868,576,9,7
54892596,529,1,7
54911312,100,625,7
54932116,576,676,7
54952916,324,441,7
54973712,9,1681,7
54993468,81,361,7
55013224,676,196,7
55034036,1089,100,7
55055872,196,4,7
55074608,4,16,7
55092284,9,324,7
55110988,169,64,7
55130752,100,2304,7
55152600,4,2209,7
55172348,400,1936,7
55194184,729,5625,7
55216020,484,5041,7
55237872,0,3844,7
55257628,2916,841,7
55279456,6561,2809,7
55302348,841,1936,7
55324196,784,1024,7
55346040,729,256,7
55366844,4,36,7
55384492,529,3721,7
55406332,2601,6084,7
55429224,121,3025,7
55451076,144,144,7
55471876,100,576,7
55492668,225,961,7
55513480,49,361,7
55533232,49,400,7
55552988,1,225,7
55571728,49,169,7
55591480,16,441,7
55611240,100,441,7
55632032,400,625,7
55652836,25,49,7
55671560,144,81,7
55691324,625,0,7
55710048,100,1,7
55728756,9,81,7
55746432,0,4,7
55763076,1,0,7
55779716,0,81,7
55797392,16,81,7
55816104,9,0,7
55832764,0,4,7
55849404,121,16,7
55869168,25,0,7
55886828,36,16,7
55905552,36,36,7
55924276,4,64,7
55941956,64,0,7
55959632,36,225,7
55979404,49,256,7
55999160,100,36,7
56018904,4,100,7
56037644,0,16,7
56055324,9,4,7
56071952,9,64,7
56089644,9,36,7
56107316,289,225,7
56128108,81,324,7
56147864,9,0,7
56164512,9,36,7
56182192,16,144,7
56201956,1,169,7
56220664,144,25,7
56240440,49,484,7
56260200,16,9,7
56277868,0,4,7
56294516,16,0,7
56312196,64,0,7
56329880,144,121,7
56350672,1,100,7
56369396,729,196,7
56390192,4,49,7
56407872,1444,225,7
56429724,144,25,7
56449476,64,441,7
56469240,25,64,7
56487960,9,121,7
56506680,0,36,7
56524356,0,16,7
56542040,1,0,7
56558680,144,25,7
56578440,121,49,7
56598196,16,1,7
56615872,81,49,7
56634604,4,9,7
56651232,49,0,7
56668928,1,9,7
56685544,36,81,7
56704272,0,64,7
56721964,1,9,7
56738596,16,81,7
56757316,121,16,7
56777076,36,36,7
56795792,64,49,7
56814508,16,0,7
56832200,4,0,7
56848836,49,0,7
56866524,9,121,7
56885228,25,36,7
56903956,16,0,7
56921656,16,1,7
56939324,16,9,7
56956996,49,81,7
56975720,25,169,7
56995476,49,36,7
57014184,49,4,7
57031884,4,36,7
57049548,36,1,7
57067240,100,25,7
57087000,324,36,7
57106752,256,121,7
57127552,1,225,7
57146268,25,100,7
57166048,49,0,7
57183716,36,16,7
57202440,0,16,7
57220124,100,49,7
57239868,729,16,7
57259624,676,81,7
57279392,289,9,7
57298132,4,225,7
57316832,9,1024,7
57336600,196,1024,7
57358440,9,289,7
57377156,289,1,7
57395880,1,64,7
57413548,256,121,7
57434364,144,9,7
57453084,4,16,7
57470760,0,9,7
57487404,81,100,7
57507168,25,4,7
57524840,4,4,7
57541476,4,0,7
57558116,9,49,7
57575796,0,1,7
57592436,4,4,7
57609080,9,169,7
57627800,25,196,7
57647548,144,4,7
57666280,81,441,7
57686032,4,484,7
57704764,1,36,7
57722428,49,4,7
57740108,49,1,7
57757804,4,36,7
57775484,289,49,7
57795228,81,4,7
57812900,0,16,7
57830592,0,64,7
57848276,4,144,7
57866992,4,16,7
57884680,16,49,7
57903396,4,64,7
57921072,4,9,7
57937708,196,4,7
57956432,361,49,7
57976196,121,0,7
57994916,0,49,7
58012588,0,4,7
58029248,9,1,7
58045876,25,81,7
58064584,169,144,7
58085408,121,400,7
58106204,16,81,7
58124904,64,400,7
58144672,1,625,7
58163392,36,289,7
58183152,36,49,7
58201880,4,4,7
58218524,16,16,7
58237240,121,0,7
58255952,625,196,7
58276756,36,0,7
58294440,1,441,7
58313156,16,81,7
58331872,4,16,7
58349552,0,9,7
58366204,100,100,7
58386996,64,121,7
58406756,81,25,7
58425488,36,9,7
58443156,196,64,7
58462912,169,1,7
58481632,1,0,7
58498276,9,1,7
58514916,289,16,7
58534688,121,9,7
58553396,1,169,7
58572116,4,4,7
58588756,9,64,7
58606436,36,9,7
58624128,441,121,7
58644916,324,289,7
58665712,121,64,7
58685476,64,16,7
58704212,16,25,7
58722916,9,0,7
58739556,16,4,7
58757240,49,49,7
58775960,36,9,7
58793628,4,144,7
58812340,25,121,7
58832124,9,81,7
58849792,1,64,7
58867476,81,1,7
58885160,0,16,7
58902844,36,225,7
58922596,1,49,7
58940276,9,36,7
58957956,0,0,7
58974604,25,4,7
58992276,16,0,7
59009948,25,4,7
59027640,1,0,7
59044272,49,144,7
59064032,4,64,7
59081708,0,36,7
59099396,1,144,7
59118124,25,196,7
59137876,49,144,7
59157632,0,16,7
59175320,169,36,7
59195064,196,784,7
59215868,64,256,7
59235648,361,0,7
59254364,324,4,7
59273076,100,676,7
59293880,100,3364,7
59315704,361,1600,7
59337544,36,100,7
59357320,1,16,7
59375000,196,16,7
59394748,1681,4,7
59414500,1225,0,7
59434276,169,9,7
59453000,4,225,7
59471708,81,100,7
59491492,169,100,7
59512276,0,144,7
59531000,0,1,7
59547636,25,9,7
59565324,25,9,7
59583000,225,4,7
59601716,16,25,7
59620452,4,9,7
59637084,16,9,7
59654752,0,4,7
59671404,0,100,7
59690120,9,0,7
59706768,1,9,7
59723392,36,144,7
59743160,9,9,7
59759812,16,9,7
59777480,9,49,7
59795160,1,9,7
59811800,9,0,7
59828448,0,9,7
59845072,4,64,7
59862768,16,9,7
59880428,36,0,7
59898120,0,4,7
59914760,4,25,7
59932436,64,0,7
59950112,144,16,7
59969888,81,49,7
59988592,25,0,7
60006276,25,0,7
60023964,1,16,7
60041652,36,4,7
60059316,81,25,2
60078028,9,16,2
60095716,4,0,2
60112348,16,121,2
60132116,16,225,2
60151880,16,100,2
60171644,1,324,2
60190344,81,1024,2
60211140,256,25,2
60230916,81,400,2
60250660,25,121,2
60270428,16,25,2
60289156,16,4,2
60306832,0,25,2
60324520,4,49,2
60342188,81,9,2
60359884,225,1,2
60378592,100,1,2
60397312,16,0,2
60415004,1,4,2
60431652,4,1,2
60448288,49,36,2
60466996,25,16,2
60485724,4,0,2
60502360,49,16,2
60521076,121,676,2
60541856,49,625,2
60561648,121,324,2
60582436,625,225,2
60603236,625,1,2
60621952,361,1,2
60640684,16,4,2
60658368,25,64,2
60677068,4,100,2
60695804,4,36,2
60713472,16,49,2
60732192,1,4,2
60748832,0,36,2
60766524,1,25,2
60784196,0,64,2
60801872,25,36,2
60820604,4,9,2
60837240,64,169,2
60856984,0,196,2
60875704,64,16,2
60894444,81,4,2
60912116,0,1,2
60928760,16,9,2
60946436,0,1,2
60963080,36,25,2
60981804,169,9,2
61000516,100,4,2
61019240,16,100,2
61038992,0,49,2
61056676,4,16,2
61074356,4,64,2
61092036,25,0,2
61109716,49,9,2
61127400,25,100,2
61147164,9,0,2
61163792,25,9,2
61181484,0,16,2
61199160,49,256,2
61218912,64,1156,2
61239724,1,49,2
61257400,1,529,2
61276100,0,484,2
61294836,16,49,2
61313564,16,16,2
61332268,0,64,2
61349956,0,0,2
61366584,25,0,2
61384268,4,0,2
61400912,16,1,2
61418604,225,121,2
61439396,81,144,2
61459156,25,0,2
61476828,49,196,2
61496596,0,196,2
61515312,4,16,2
61533000,36,1,2
61550684,16,49,2
61569404,81,100,2
61589152,9,256,2
61607864,9,64,2
61625552,25,0,2
61643240,16,1,2
61660924,4,9,2
61677548,9,49,2
61695240,16,121,2
61714996,1,16,2
61732668,0,9,2
61749312,144,9,2
61768036,324,4,2
61786748,144,1,2
61805476,25,9,2
61823156,9,0,2
61839800,4,9,2
61856436,64,49,2
61875148,9,100,2
61893876,1,0,2
61910512,4,9,2
61927144,121,0,2
61945876,25,1,2
61963560,9,0,2
61980208,361,4,2
61998912,529,256,2
62019720,1,169,2
62038436,196,121,2
62059224,49,225,2
62078992,9,36,2
62096676,0,9,2
62113324,4,9,2
62129956,9,100,2
62148680,64,169,2
62168436,4,9,2
62185080,1,16,2
62202748,16,9,2
62220432,25,25,2
62239152,16,169,2
62258904,4,529,2
62277624,0,400,2
62296364,64,9,2
62314036,9,49,2
62331720,1,0,2
62348352,0,64,2
62366036,0,100,2
62384752,0,49,2
62402432,0,64,2
62420112,49,16,2
62438836,196,144,2
62459624,81,324,2
62479404,100,324,2
62500196,196,169,2
62521000,100,4,2
62539700,16,0,2
62557408,81,361,2
62577156,100,1089,2
62598996,64,676,2
62618756,784,225,2
62639548,441,16,2
62659324,36,225,2
62679072,49,81,2
62697800,16,64,2
62716516,0,4,2
62733156,4,36,2
62750836,25,64,2
62769568,64,1,2
62787232,64,441,2
62807000,900,1089,2
62828844,484,625,2
62849644,1,169,2
62868352,81,49,2
62887084,121,4,2
62905796,121,4,2
62924516,0,1,2
62941156,4,9,2
62957808,25,9,2
62975468,0,0,2
62992120,4,1,2
63008748,4,9,2
63025396,0,4,2
63042032,0,36,2
63059720,1,4,2
63076340,36,16,2
63095084,4,16,2
63112756,0,4,2
63129400,9,25,2
63147080,16,1,2
63164756,16,16,2
63183480,0,1,2
63200116,1,4,2
63216764,49,0,2
63234444,144,81,2
63254188,36,64,2
63272908,0,0,2
63289552,1,9,2
63306196,1,169,2
63324908,64,361,2
63344684,64,1,2
63362364,9,64,2
63380040,9,1,2
63396676,64,36,2
63415400,1,36,2
63433084,16,64,2
63451796,4,1,2
63468424,121,196,2
63489244,400,144,2
63510036,64,9,2
63527716,169,1,2
63546436,961,81,2
63566192,529,484,2
63586996,169,441,2
63607784,81,121,2
63627556,729,0,2
63646268,169,0,2
63664996,81,1,2
63682676,100,4,2
63701400,1,16,2
63719064,9,4,2
63735708,169,121,2
63756532,16,9,2
63774196,64,1,2
63791872,64,4,2
63809552,9,16,2
63827236,1,100,2
63845952,36,49,2
63864676,64,144,2
63884432,36,49,2
63903144,64,0,2
63920836,1,4,2
63937468,16,1,2
63955152,25,9,2
63972840,16,81,2
63991564,1,9,2
64008200,9,144,2
64026920,289,225,2
64047708,1225,121,2
64069552,961,49,2
64089324,225,49,2
64109096,1,4,2
64125704,484,196,2
64146504,441,144,2
64167316,441,36,2
64187080,100,121,2
64207860,2304,400,2
64229712,8281,625,2
64251552,1521,324,2
64273380,5184,36,2
64294184,361,9,2
64312900,12544,1024,2
64336800,7225,900,2
64358652,12996,324,2
64381540,3844,100,2
64403364,16641,2401,2
64427296,8649,1764,2
64450184,10404,900,2
64473060,144,0,2
64491780,256,196,2
64512568,2025,1024,2
64535448,2401,4,2
64555212,64,1681,2
64576012,0,36,2
64593704,7921,529,2
64615532,2401,144,2
64637384,18769,81,2
64659220,13456,256,2
64682116,1156,4,2
64701868,1024,16,2
64722660,841,169,2
64743468,729,4,2
64762184,400,144,2
64782992,16,64,2
64801700,100,169,2
64822512,3136,0,2
64842268,1764,484,2
64864104,9025,4,2
64883864,13225,9,2
64904656,12544,121,2
64927552,18496,4,2
64948344,9604,256,2
64970180,3721,361,2
64992012,81,121,2
65011772,4096,16,2
65032596,6400,169,2
65054428,225,144,2
65075244,196,49,2
65094980,36,0,2
65112660,100,16,2
65132428,2809,1,2
65152192,1444,100,2
65174040,1444,49,2
65194816,484,256,2
65215628,900,0,2
65234352,6400,49,2
65255140,25921,625,2
65278016,5184,1024,2
65300900,625,0,2
65319624,324,121,2
65340432,441,16,2
65360180,3969,25,2
65380972,2401,81,2
65401772,121,400,2
65422572,30976,9,2
65443388,0,3025,2
65463140,24464,6561,2
65487060,5625,2025,2
65509932,1600,144,2
65531792,576,25,2
65551528,841,361,2
65572336,5329,529,2
65594168,13225,0,2
65614984,26244,1849,2
65638892,7569,1225,2
65661784,2304,1,2
65681556,1296,484,2
65703388,513,729,2
65724168,26896,1600,2
65748112,4900,0,2
65767848,8649,64,2
65788664,8448,5184,2
65811544,29584,3481,2
65835460,9216,9,2
65855212,0,196,2
65873936,12100,900,2
65896836,19044,121,2
65919700,13456,1024,2
65943624,289,121,2
65964432,144,400,2
65985228,9801,9,2
66004992,3249,256,2
66026840,100,0,2
66045548,49,144,2
66065316,400,9,2
66084024,14400,121,2
66106896,9409,1521,2
66129792,1681,81,2
66150596,20164,1444,2
66174504,4225,1444,2
66197396,4489,400,2
66219232,22201,900,2
66242096,441,625,2
66262896,900,121,2
66283692,30276,1296,2
66307608,27225,3600,2
66331532,961,1,2
66350268,16129,289,2
66373148,13225,196,2
66396024,784,1156,2
66417876,841,361,2
66438664,400,400,2
66459464,961,196,2
66480264,3969,169,2
66502104,8836,5041,2
66524984,784,1849,2
66546820,961,324,2
66567620,5476,81,2
66588424,1681,1,2
66608188,324,49,2
66627932,2025,49,2
66648736,784,81,2
66668488,2025,16,2
66689300,5184,225,2
66711124,1,784,2
66729856,841,289,2
66750664,0,256,2
66769376,0,2704,2
66789144,0,2209,2
66808916,324,4,2
66827620,11236,64,2
66849464,576,4,2
66868172,1444,36,2
66888996,81,64,2
66907696,121,144,2
66928492,16,64,2
66947228,1849,64,2
66968016,1521,25,2
66988824,441,16,2
67008584,3136,0,2
67028344,441,4,2
67047044,484,16,2
67066804,225,25,2
67086588,324,4,2
67105316,16,25,2
67124020,9801,64,2
67144816,7744,729,2
67166656,1,25,2
67184336,676,49,2
67204088,25,49,2
67222824,2025,100,2
67244652,1225,49,2
67265452,16,4,2
67283144,1089,0,2
67302896,16641,324,2
67325780,26244,1849,2
67349704,1156,529,2
67371540,9604,289,2
67393372,25,144,2
67413148,2809,225,2
67434984,1156,0,2
67454732,8100,1,2
67474508,2601,1225,2
67497388,169,0,2
67516100,324,729,2
67536912,1681,9,2
67556664,2809,4,2
67576424,64,225,2
67596188,361,4,2
67614900,36,4,2
67632580,25,16,2
67651304,2500,64,2
67672108,1936,144,2
67693940,12544,400,2
67716820,7225,1296,2
67739716,361,4,2
67758408,0,529,2
67777148,8057,8100,2
67800000,22592,6889,2
67823932,0,4489,2
67843692,2209,1936,2
67866560,14884,576,2
67889472,0,1369,2
67909216,1028,1681,2
67932092,29929,2809,2
67956044,1,256,2
67974736,4225,256,2
67996580,144,64,2
68016340,1089,81,2
68037148,961,36,2
68056900,2601,0,2
68076676,16900,25,2
68098500,0,841,2
68117228,10404,1296,2
68141152,2916,36,2
68161936,4624,196,2
68183784,2401,196,2
68205620,10404,900,2
68228500,16384,400,2
68251388,2025,25,2
68272204,6400,4,2
68291944,5041,256,2
68313788,36,81,2
68332496,36,0,2
68350184,3721,16,2
68370968,1936,324,2
68392824,121,25,2
68412596,256,1,2
68431308,196,100,2
68452092,2116,64,2
68472904,5776,169,2
68494744,7396,841,2
68516588,400,121,2
68537404,49,36,2
68556100,3249,729,2
68577948,14161,2116,2
68601844,11748,1156,2
68625788,0,2209,2
68645552,324,16,2
68665300,576,256,2
68686084,9604,256,2
68707940,6889,49,2
68728736,0,729,2
68747472,729,841,2
68768248,6400,1521,2
68791128,0,361,2
68809856,0,6561,2
68829624,256,49,2
68849380,16,196,2
68869148,3025,961,2
68890980,26896,1225,2
68914892,3600,3721,2
68937792,1521,400,2
68959632,1296,0,2
68979392,13689,3969,2
69003296,21609,324,2
69026180,4,121,2
69044896,18769,0,2
69065688,400,441,2
69086508,3721,100,2
69108328,28900,1089,2
69132252,30976,2809,2
69156188,5184,4,2
69175940,17689,1444,2
69199860,784,196,2
69220664,361,100,2
69241464,11881,100,2
69264320,22500,2304,2
69288252,13924,1936,2
69312176,3136,324,2
69334004,26244,576,2
69356912,18769,121,2
69379760,0,1849,2
69399528,19881,4096,2
69423464,2500,144,2
69445288,13456,900,2
69468180,0,8836,2
69487956,0,3721,2
69507712,10201,400,2
69530576,49,676,2
69550352,1,225,2
69569056,196,256,2
69589852,49,36,2
69608580,1296,484,2
69630420,529,1,2
69649144,2209,100,2
69670992,5184,64,2
69691792,3025,0,2
69711540,729,361,2
69732340,2304,16,2
69753140,9801,1369,2
69776024,729,400,2
69796808,28224,676,2
69819708,0,1296,2
69839452,0,1681,2
69859216,0,3600,2
69878988,0,2209,2
69898752,11664,529,2
69921628,4356,9,2
69941392,2401,256,2
69963208,26244,121,2
69986096,23409,2809,2
70010040,121,169,2
70030816,3844,529,2
70052656,6241,25,2
70073456,289,256,1
70094264,529,196,1
70115064,13689,16,1
70136904,0,841,1
70155616,20736,1681,1
70179536,19321,625,1
70202440,1089,400,1
70224264,0,144,1
70242980,0,3721,1
70262728,6889,1936,1
70285612,4624,49,1
70306416,729,81,1
70326172,324,289,1
70346984,3721,0,1
70366740,2500,121,1
70388584,576,225,1
70409384,1681,324,1
70431212,14161,121,1
70454096,7744,36,1
70474908,12100,100,1
70497776,0,2500,1
70517540,20736,2601,1
70541464,3969,576,1
70563296,2304,169,1
70585132,7744,9,1
70604896,16384,900,1
70627788,15625,676,1
70650652,289,36,1
70670432,2601,36,1
70691224,3844,16,1
70712028,20736,400,1
70734912,6400,441,1
70756740,0,49,1
70774416,28900,2209,1
70798348,196,169,1
70819152,9216,576,1
70840980,7225,81,1
70861764,5476,144,1
70883632,361,0,1
70902348,961,144,1
70923140,10404,1089,1
70947080,1296,196,1
70968892,6084,1024,1
70991772,11881,169,1
71014684,10000,729,1
71037540,2401,1681,1
71060416,0,121,1
71079132,3600,16,1
71099932,1764,36,1
71120732,2209,16,1
71141548,12996,484,1
71164452,13425,1225,1
71188328,0,2304,1
71208104,25,576,1
71227860,2116,36,1
71248652,2209,25,1
71269460,400,289,1
71290272,36,25,1
71308972,2704,144,1
71330828,11025,484,1
71353704,15876,784,1
71376580,2601,529,1
71398432,1296,9,1
71418172,5329,4,1
71437932,64,25,1
71456660,225,64,1
71476436,144,4,1
71495148,484,81,1
71514892,441,16,1
71534660,900,169,1
71555456,1156,16,1
71576252,484,36,1
71596008,3844,289,1
71617872,26244,900,1
71640740,6241,961,1
71662568,0,361,1
71681300,22500,2916,1
71705216,11025,16,1
71727036,15129,1521,1
71750976,0,144,1
71769712,0,3249,1
71789460,8464,3600,1
71812332,8836,289,1
71834188,27489,2601,1
71858092,0,3600,1
71877852,17424,3249,1
71901776,4761,1024,1
71924648,11881,289,1
71947552,1024,169,1
71969396,9,9,1
71986012,17424,289,1
72008900,3364,1369,1
72031784,100,4,1
72050504,1089,9,1
72070268,196,0,1
72088988,17956,1156,1
72112916,0,4900,1
72132664,0,2916,1
72152428,0,2116,1
72172180,12544,4096,1
72196104,9409,4,1
72215864,3721,1764,1
72238768,49,169,1
72258512,64,1,1
72276188,256,961,1
72296984,289,9,1
72315720,16,49,1
72334452,196,169,1
72355240,0,9,1
72371872,729,225,1
72392660,16,36,1
72411388,484,81,1
72431132,2025,100,1
72452968,3249,324,1
72474828,3721,9,1
72494580,361,81,1
72514348,289,64,1
72534116,1,196,1
72552824,36,0,1
72570520,1089,9,1
72590260,256,64,1
72610040,4,1,1
72626668,729,25,1
72646428,625,289,1
72667236,36,400,1
72687000,324,4,1
72705708,529,36,1
72725464,256,25,1
72745236,2209,81,1
72766032,4,25,1
72783712,841,4,1
72802448,289,0,1
72821156,625,0,1
72839864,9801,256,1
72861684,16900,961,1
72884596,1089,324,1
72906440,1089,81,1
72927220,2601,144,1
72949084,2916,25,1
72969880,1156,144,1
72991708,64,49,1
73010444,225,25,1
73030200,400,64,1
73049960,196,25,1
73069732,81,4,1
73087396,784,4,1
73106108,1024,121,1
73127956,1296,36,1
73148756,7396,729,1
73170596,5184,225,1
73192420,361,121,1
73213236,49,121,1
73232984,324,16,1
73252752,64,0,1
73270440,9,0,1
73287080,361,16,1
73306828,841,0,1
73325540,1296,36,1
73346352,2304,81,1
73367160,1089,121,1
73388988,144,169,1
73409796,16,9,1
73427476,1225,1,1
73447216,5929,400,1
73469076,5329,961,1
73490904,784,196,1
73511712,49,0,1
73529408,121,1,1
73548108,3721,9,1
73567868,10404,324,1
73590740,1296,729,1
73612592,4,64,1
73630272,16,9,1
73647960,7744,324,1
73669788,27556,1296,1
73693700,5776,1024,1
73716572,36,1,1
73734256,1225,36,1
73755068,1089,9,1
73774836,1225,16,1
73795640,2601,49,1
73816428,6561,36,1
73837224,5625,289,1
73859068,1,121,1
73877808,144,25,1
73897564,324,16,1
73917304,2704,25,1
73938116,4761,16,1
73958920,484,64,1
73978684,9,0,1
73995320,900,49,1
74015084,961,25,1
74034828,841,121,1
74055608,784,16,1
74075380,121,0,1
74094116,4096,1,1
74113852,9216,400,1
74135712,5184,484,1
74157544,25,49,1
74176264,4225,4,1
74196032,6889,169,1
74217880,2401,196,1
74239720,25,64,1
74258424,144,4,1
74277160,361,0,1
74295876,1,4,1
74312512,81,121,1
74332276,4,169,1
74351004,64,9,1
74368676,16,0,1
74386348,16,0,1
74404028,961,1,1
74422740,5041,361,1
74444576,4356,576,1
74466440,3600,64,1
74487232,1521,100,1
74509076,196,49,1
74528844,0,4,1
74545464,3721,1,1
74565224,11449,400,1
74588100,3025,324,1
74609964,16,4,1
74627640,36,4,1
74645308,2500,361,1
74667152,6889,676,1
74688976,961,361,1
74709792,121,36,1
74729556,1444,16,1
74750352,529,16,1
74770112,49,16,1
74788836,121,0,1
74807552,121,81,1
74827316,144,64,1
74847052,529,16,1
74866840,3025,225,1
74888672,1444,289,1
74910512,0,0,1
74927156,81,4,1
74944844,25,4,1
74962512,100,0,1
74981236,36,1,1
74998928,4,1,1
75015560,1,16,1
75033228,529,0,1
75051948,576,16,1
75071720,49,1,1
75089392,225,36,1
75109152,484,4,1
75127872,625,16,1
75147644,361,16,1
75167396,0,16,1
75185064,1024,4,1
75204824,7396,289,1
75226668,10404,676,1
75249556,1681,169,1
75271404,169,4,1
75290112,256,25,1
75309876,16,16,1
75328600,0,36,1
75346284,16,4,1
75363964,64,1,1
75381640,225,25,1
75401408,256,1,1
75420120,1156,169,1
75441956,841,4,1
75460676,256,1,1
75479400,16,64,1
75498120,64,1,1
75515800,1,1,1
75532440,100,225,1
75553228,784,400,1
75574032,9,121,1
75592748,2704,16,1
75613548,7056,289,1
75635388,2916,361,1
75657244,4,16,1
75674916,484,9,1
75693632,100,0,1
75712348,9,64,1
75730040,25,81,1
75748764,1,25,1
75766436,81,16,1
75785156,0,9,1
75801792,1,25,1
75819468,729,64,1
75839228,289,36,1
75859000,81,4,1
75876676,729,16,1
75896436,81,4,1
75914120,121,4,1
75932848,64,9,1
75950512,196,16,1
75970264,289,4,1
75988992,36,64,1
76007728,64,0,1
76025392,0,16,1
76043068,256,4,1
76061800,196,36,1
76081560,49,100,1
76101312,729,100,1
76122108,361,169,1
76142932,361,36,1
76162668,1936,25,1
76183456,1849,225,1
76205312,361,121,1
76226112,0,16,1
76243800,1,36,1
76261476,324,4,1
76280196,1225,144,1
76302028,25,81,1
76320744,484,25,1
76340524,1369,9,1
76360272,2809,0,1
76380024,2704,441,1
76401872,16,256,1
76421628,3721,64,1
76442432,5041,256,1
76464284,676,196,1
76485064,100,81,1
76504832,121,9,1
76523568,16,0,1
76541240,196,1,1
76559956,49,0,1
76577640,9,4,1
76594280,36,1,1
76611952,256,16,1
76631708,100,1,1
76650428,121,1,1
76669160,361,0,1
76687876,1024,121,1
76709708,676,100,1
76730516,169,0,1
76749220,5329,324,1
76771068,625,676,1
76791868,324,0,1
76810596,1,9,1
76827220,361,100,1
76848024,1444,49,1
76868816,8649,225,1
76890656,9604,900,1
76912512,1849,256,1
76934372,121,1,1
76953076,81,16,1
76971792,121,1,1
76990528,1,81,1
77008196,16,4,1
77025884,225,1,1
77044608,9,25,1
77062280,169,1,1
77081004,36,25,1
77099700,225,64,1
77119456,1600,49,1
77140276,144,9,1
77158984,2304,121,1
77180824,441,121,1
77201644,121,25,1
77221404,64,9,1
77239068,196,9,1
77257796,676,196,1
77278608,4,25,1
77296276,324,4,1
77314996,100,0,1
77333732,4,0,1
77350360,81,4,1
77368024,841,121,1
77388824,10816,900,1
77411716,9216,625,1
77433548,625,100,1
77454364,0,16,1
77472044,144,9,1
77490752,196,1,1
77509472,100,4,1
77528192,1764,25,1
77548996,1369,256,1
77570828,81,100,1
77590600,256,0,1
77609316,1089,1,1
77629068,225,1,1
77647776,3136,36,1
77668588,6400,49,1
77689376,0,1444,1
77709156,11025,961,1
77732048,100,1,1
77750764,1369,4,1
77770516,1296,25,1
77791304,0,81,1
77809000,121,25,1
77828764,1849,4,1
77848508,1296,529,1
77870368,1,81,1
77888036,4,81,1
77905712,441,4,1
77924444,361,9,1
77943176,36,25,1
77961880,121,1,1
77980588,196,25,1
78000360,4,25,1
78018036,1,0,1
78034676,9,16,1
78052348,16,0,1
78070040,144,0,1
78088760,225,4,1
78107472,81,4,1
78125164,100,25,1
78144916,0,0,1
78161552,9,9,1
78178184,400,16,1
78197944,7569,81,1
78218740,10404,289,1
78241628,1681,196,1
78263492,16,9,1
78281152,225,0,1
78299876,16,1,1
78317544,49,64,1
78336264,9,4,1
78352912,1444,121,1
78374748,484,49,1
78394520,49,36,1
78413232,441,64,1
78432996,324,9,1
78451700,16,4,1
78469404,0,1,1
78486040,0,9,1
78502672,324,49,1
78522440,1156,64,1
78543240,1089,64,1
78564032,361,100,1
78584828,0,169,1
78603564,4,121,1
78622264,169,81,1
78642032,1,25,1
78659712,49,0,1
78677388,1681,1,1
78697140,6084,225,1
78719000,2704,324,1
78740844,361,49,1
78760596,9,49,1
78778268,169,25,1
78798040,2209,9,1
78817776,4225,196,1
78839616,3600,400,1
78861484,144,81,1
78881236,121,1,1
78899952,121,1,1
78918672,121,0,1
78937392,25,9,1
78955068,16,1,1
78972748,25,1,1
78990440,16,16,1
79009164,81,1,1
79026848,100,1,1
79045544,36,4,1
79063232,676,16,1
79083008,4,9,1
79099628,49,36,1
79118356,4,4,1
79134988,484,81,1
79154756,576,81,1
79174520,121,64,1
79194276,289,9,1
79212988,100,4,1
79231720,49,64,1
79250424,25,36,1
79269156,0,0,1
79285804,49,1,1
79303468,784,0,1
79322196,2500,289,1
79344036,361,196,1
79364828,196,256,1
79385644,144,324,1
79406440,121,9,1
79425152,256,4,1
79443872,0,9,1
79460524,9,4,1
79477160,121,25,1
79496916,144,81,1
79516660,16,36,1
79535404,0,4,1
79552036,25,4,1
79569720,9,4,1
79586368,49,4,1
79604032,1600,49,1
79624840,2209,144,1
79646676,196,25,1
79666444,324,9,1
79685152,324,9,1
79703872,1225,4,1
79723632,4489,400,1
79745476,900,121,1
79766284,225,9,1
79785008,676,4,1
79803724,100,25,1
79823456,196,49,1
79843228,2304,0,1
79863000,1225,4,1
79882760,16,81,1
79901472,289,196,1
79922284,361,121,1
79943080,25,1,1
79960748,169,4,1
79979472,1,1,1
79996116,36,1,1
80013788,484,1,1
80032520,1521,100,1
80054352,729,169,3
80075156,289,25,3
80094904,324,25,3
80114664,1,16,3
80132364,441,9,3
80151072,169,100,3
80171872,9,36,3
80189560,324,4,3
80208276,144,0,3
80227000,0,9,3
80243632,81,1,3
80261316,361,9,3
80280028,361,16,3
80299800,121,4,3
80318524,25,4,3
80336208,0,4,3
80352832,576,0,3
80371548,2116,100,3
80393400,1369,144,3
80415240,196,1,3
80433944,16,16,3
80452676,25,25,3
80471400,1521,169,3
80493232,2209,121,3
80515064,1296,4,3
80534836,400,16,3
80554596,81,9,3
80572272,196,16,3
80592044,64,9,3
80609712,64,16,3
80628440,9,4,3
80645072,196,9,3
80663800,81,9,3
80681464,3025,100,3
80703320,2209,361,3
80725152,64,49,3
80743860,1444,9,3
80763640,1225,1,3
80783400,441,9,3
80802124,676,1,3
80820832,1089,25,3
80841628,784,64,3
80861396,324,1,3
80880116,400,9,3
80898836,784,49,3
80918596,169,64,3
80938356,9,0,3
80954996,25,16,3
80973716,9,1,3
80990356,1,9,3
81007000,16,25,3
81025712,16,16,3
81044428,16,0,3
81062120,9,25,3
81079788,529,1,3
81098504,900,81,3
81118276,36,36,3
81136996,121,0,3
81155712,256,0,3
81174420,36,0,3
81192120,49,9,3
81209800,729,16,3
81229560,256,9,3
81248276,25,4,3
81265960,64,1,3
81283636,36,4,3
81301312,1,0,3
81317964,196,4,3
81336676,676,81,3
81356428,49,9,3
81374108,529,144,3
81394912,64,81,3
81413632,4,1,3
81430268,64,36,3
81449000,49,289,3
81468768,529,36,3
81488516,1849,36,3
81509308,1089,1,3
81529080,256,36,3
81548840,1,16,3
81566508,64,25,3
81585240,16,4,3
81602916,64,1,3
81620584,2809,36,3
81641376,4761,196,3
81663240,1,100,3
81681964,289,4,3
81700672,4,1,3
81717320,400,121,3
81738112,1024,49,3
81758908,400,100,3
81779704,529,100,3
81800516,400,16,3
81820268,4,9,3
81836916,1,0,3
81853564,256,100,3
81874360,144,36,3
81894116,36,1,3
81911776,64,100,3
81931552,64,361,3
81951300,100,729,3
81972100,169,529,3
81992924,441,0,3
82011624,400,225,3
82032436,100,9,3
82051160,625,400,3
82071948,841,324,3
82092740,2304,100,3
82114608,169,784,3
82135396,400,676,3
82156184,729,100,3
82176980,2500,144,3
82198840,9,64,3
82216508,25,16,3
82235224,1024,324,3
82257060,2116,4,3
82276836,2809,900,3
82298660,13456,1296,3
82322568,9604,16,3
82343384,0,3600,3
82363116,9553,6561,3
82386032,0,4900,3
82405788,10201,2500,3
82429704,484,1089,3
82451552,6724,2500,3
82474408,24649,25,3
82496248,4225,1444,3
82519140,32761,4624,3
82543036,10640,81,3
82564892,0,0,3
82581536,6084,9540,3
82604436,64,17408,3
82626240,7744,0,3
82646000,0,7569,3
82665792,729,9,3
82684496,15129,1225,3
82708420,144,961,3
82729216,0,4624,3
82748972,4900,484,3
82770808,9,25,3
82788500,13689,25,3
82810328,2809,100,3
82832184,6084,64,3
82852992,484,28224,3
82875860,0,0,3
82892484,0,729,3
82911216,1156,5625,3
82934112,2304,1089,3
82956968,1764,7744,3
82979816,19321,8281,3
83003788,18769,3025,3
83027692,4761,7744,3
83050568,22201,14884,3
83075532,2500,400,3
83097376,8649,2601,3
83120260,5776,3364,3
83143136,10609,49,3
83164968,14400,3844,3
83188900,6889,9409,3
83211776,27556,3481,3
83235692,24336,4900,3
83259620,32761,9409,3
83283536,18769,7921,3
83307448,22500,2116,3
83331380,23409,729,3
83354252,25,1849,3
83375052,2601,4489,3
83397932,30976,6400,3
83421856,4356,1156,3
83444720,625,2704,3
83466564,3969,3364,3
83489456,0,1764,3
83509192,0,4489,3
83528972,15376,324,3
83551860,256,36,3
83571616,2116,100,3
83593452,1225,1521,3
83616320,6400,5929,3
83639196,26569,4624,3
83663132,1764,14884,3
83687052,1681,16384,3
83710968,6400,25,3
83731780,0,10404,3
83752568,29929,10404,3
83777524,14641,961,3
83800424,2304,400,3
83822264,361,484,3
83843060,2401,16,3
83863856,2916,1089,3
83886736,4225,3025,3
83909624,49,1024,3
83930428,64,36,3
83949140,900,0,3
83967860,13225,1936,3
83991788,14884,5776,3
84015700,324,576,3
84036480,23104,1521,3
84060400,225,900,3
84081212,10816,484,3
84104116,121,4,3
84122824,1764,289,3
84144660,11236,25,3
84166488,0,2116,3
84186272,0,1296,3
84206024,10640,225,3
84228896,0,8836,3
84248660,8464,6084,3
84271548,6561,576,3
84293380,1681,2025,3
84316264,18225,256,3
84339148,784,1225,3
84360968,3025,1936,3
84383860,1369,900,3
84405716,16,25,3
84424424,8649,169,3
84446272,0,121,3
84464984,19145,5625,3
84488896,16833,5476,3
84512824,0,5041,3
84532596,1,18225,3
84553380,27556,5625,3
84577304,3249,961,3
84599152,784,2916,3
84620992,7396,225,3
84642800,8836,144,3
84664664,20736,169,3
84687532,225,256,3
84708308,28561,2500,3
84732272,30564,3481,3
84756184,0,4225,3
84775916,0,9,3
84792592,19472,14641,3
84817540,15689,14400,3
84842504,841,2209,3
84864336,0,3844,3
84884092,7744,17956,3
84908020,2116,5776,3
84930908,1225,1296,3
84953792,1156,49,3
84974564,23104,81,3
84996420,12769,1521,3
85020348,2704,169,3
85042184,0,1936,3
85061944,26880,5184,3
85085844,0,1444,3
85105616,144,9,3
85124336,784,9,3
85143052,29584,1444,3
85166984,0,1521,3
85186748,27556,1764,3
85210672,1156,36,3
85231472,2704,1681,3
85254348,1,36,3
85272020,1024,289,3
85293860,625,1600,3
85315708,0,1,3
85332332,14400,3136,3
85356256,24025,121,3
85379132,14884,2401,3
85403052,10404,256,3
85425932,17161,625,3
85448840,8281,3969,3
85471700,9,2304,3
85491460,19881,36,3
85513300,21904,1600,3
85537224,2704,400,3
85559076,3364,9,3
85578808,324,961,3
85599644,8100,784,3
85621468,7225,0,3
85641232,0,841,3
85659940,7905,11881,3
85683868,18225,11881,3
85708836,1089,4489,3
85731704,7921,3249,3
85754584,12544,900,3
85777472,8100,81,3
85798284,4,169,3
85816960,11881,289,3
85839844,576,2209,3
85861708,2304,576,3
85883548,6889,2025,3
85906420,8836,64,3
85927224,17161,144,3
85950100,0,8649,3
85969844,29241,13689,3
85994816,9025,256,3
86016648,0,6889,3
86036416,144,961,3
86057220,3844,81,3
86078020,225,121,3
86098816,784,361,3
86119620,361,16,3
86139368,0,576,3
86158084,0,49,3
86175776,196,729,3
86196584,841,196,3
86217384,4,1600,3
86237128,100,441,3
86257944,1849,1,3
86277696,1764,441,3
86299540,17956,1369,3
86323464,24025,2401,3
86347376,5329,3025,3
86370232,0,2116,3
86390028,0,9,3
86406660,0,361,3
86425376,8649,324,3
86447244,676,900,3
86468028,1521,1024,3
86490908,7056,361,3
86512736,1024,361,3
86534588,2500,1444,3
86557468,6889,529,3
86579308,6084,900,3
86601136,1521,1296,3
86624000,17956,25,3
86645864,17408,1296,3
86669780,7364,49,3
86690596,19600,3481,3
86714496,14161,676,3
86737380,2209,3136,3
86760264,8281,36,3
86781056,5220,7744,3
86803948,16260,10201,3
86828892,19600,6241,3
86852832,1024,1225,3
86875700,2704,289,3
86897544,2916,1156,3
86920416,169,256,3
86941216,144,1156,3
86963068,1521,841,3
86984908,289,81,3
87004652,11664,2704,3
87028584,29929,5184,3
87052488,0,3844,3
87072280,1600,1521,3
87095136,9025,196,3
87116992,7225,144,3
87138828,841,289,3
87159616,29241,625,3
87182508,26896,2025,3
87206432,2116,576,3
87228256,6084,841,3
87250112,6400,1089,3
87272976,4,1936,3
87292744,324,4096,3
87314584,2401,289,3
87336416,2809,1936,3
87359296,8836,1089,3
87382192,25,36,3
87400900,2209,0,3
87420660,0,1849,3
87440436,289,7056,3
87462256,3249,1681,3
87485136,5041,784,3
87506980,9801,529,3
87528824,4761,17161,3
87552732,24649,7056,3
87576664,31684,1936,3
87600588,8464,4,3
87620320,0,7056,3
87640104,0,196,3
87658808,0,1156,3
87678596,0,2916,3
87698316,32144,11449,3
87723308,3108,8281,3
87746188,4900,900,3
87768028,15876,3844,3
87791948,1225,1681,3
87814820,25,9,3
87832484,10816,49,3
87854320,9409,1024,3
87877208,21609,441,3
87900080,0,16,3
87917784,15625,1369,3
87941688,10201,7056,3
87965596,25281,6724,3
87989536,8464,64,3
88010344,10404,784,3
88033228,12769,6400,3
88057152,13924,2116,3
88081056,20736,3364,3
88104984,19044,6724,3
88128912,1849,676,3
88150740,5929,784,3
88172576,13924,8100,3
88196512,225,2916,3
88218332,2601,81,3
88239140,4225,49,3
88259960,324,9,3
88278664,6561,0,3
88298404,14884,169,3
88321296,4,441,3
88340016,1936,11664,3
88363936,3721,8281,3
88386816,0,2500,3
88406584,0,9216,3
88426336,7396,4096,3
88449216,30625,361,3
88472092,0,1,3
88488740,529,2209,3
88510588,64,841,3
88530340,3025,484,3
88552180,1369,4225,3
88575060,10000,14400,3
88600016,36,4356,3
88620812,2025,225,3
88642648,27556,1444,3
88666564,0,121,3
88685304,9025,81,3
88706112,21316,1,3
88726904,0,3481,3
88746660,3721,1600,3
88769544,0,196,3
88788260,12100,36,3
88810108,81,900,3
88829864,10000,64,3
88851704,17956,9,3
88872500,14641,1024,3
88896416,23716,3969,3
88920348,2304,4624,3
88943216,196,400,3
88964012,3249,484,3
88985860,0,3136,3
89005608,28900,2809,3
89029552,6241,121,3
89051392,49,25,3
89070092,441,49,3
89089864,8836,9,3
89109636,12100,1369,3
89133552,576,2304,3
89155380,22500,1849,3
89179308,8836,12321,3
89203224,1849,5776,3
89226076,0,7921,3
89245876,0,10816,3
89266664,0,484,3
89285376,3481,1369,3
89308268,0,1089,3
89328028,9,4,3
89344652,5476,3249,3
89367520,14884,17956,3
89392500,289,5776,3
89414336,1849,361,3
89436176,3969,256,3
89458016,4624,2500,3
89480888,4096,8836,3
89503780,1681,1764,3
89526660,4096,324,3
89548496,6724,841,3
89570360,17424,529,3
89593228,20449,441,3
89616112,9,36,3
89633776,3721,4761,3
89656676,361,6561,3
89678496,1521,49,3
89699288,6084,441,3
89721152,0,1600,3
89740916,3025,441,3
89762744,13456,144,3
89785636,0,1296,3
89805372,17956,36,3
89827192,15376,324,3
89850092,0,361,3
89868820,2500,169,3
89890660,196,121,3
89911464,225,4,3
89930176,529,2916,3
89952012,11881,3481,3
89975948,0,784,3
89994660,32041,7921,3
90018580,12100,9025,3
90042508,16,7056,3
90063300,3249,2304,2
90086156,5929,4356,2
90109072,2116,6400,2
90131944,1156,441,2
90153780,3136,1,2
90173540,2809,169,2
90195372,225,81,2
90215132,10609,2601,2
90239064,13924,2809,2
90262980,14400,1936,2
90286912,225,529,2
90307692,7921,81,2
90328512,3721,49,2
90349308,529,1,2
90368024,1764,25,2
90388824,841,400,2
90409612,36,169,2
90429380,529,196,2
90450192,3136,4,2
90469948,1,1,2
90486572,17161,784,2
90509452,21025,169,2
90532336,3600,729,2
90554188,10816,400,2
90577064,29241,196,2
90599952,625,64,2
90619692,4489,81,2
90640508,2704,676,2
90662340,8281,3364,2
90685220,24649,729,2
90708100,2500,0,2
90727864,784,1681,2
90749708,3721,1521,2
90772572,0,2304,2
90792340,12321,2025,2
90816272,2209,256,2
90838124,2916,225,2
90859944,169,1849,2
90881780,2601,1225,2
90904656,9216,1444,2
90927536,16900,4096,2
90951464,9,289,2
90970180,25,4,2
90987876,16,1600,2
91008660,3600,169,2
91030492,15129,1156,2
91054424,5041,361,2
91076260,64,25,2
91094972,1,289,2
91113708,10816,100,2
91136592,18769,441,2
91159460,81,324,2
91179224,2116,0,2
91198984,1369,36,2
91219784,625,1,2
91238508,225,0,2
91257220,324,25,2
91276972,256,441,2
91297772,144,1156,2
91319624,100,900,2
91340424,4356,100,2
91362252,27889,289,2
91385144,12996,81,2
91406980,441,0,2
91425688,841,36,2
91445468,36,256,2
91465232,225,1681,2
91487052,1444,2304,2
91509948,196,196,2
91530740,36,441,2
91550508,3844,484,2
91572340,1024,3969,2
91595220,0,15129,2
91616008,18225,4225,2
91639948,2401,1764,2
91662816,2116,11236,2
91686744,4096,1681,2
91709628,10201,3633,2
91733540,841,0,2
91752244,11881,16,2
91774104,0,21316,2
91794868,14089,12544,2
91819868,2064,18225,2
91843780,0,12864,2
91864588,31329,18697,2
91889532,1156,0,2
91909292,2500,2025,2
91932168,0,0,2
91948796,29328,0,2
91969608,3136,64,2
91990416,12544,576,2
92013280,12100,0,2
92034100,6400,841,2
92055952,484,169,2
92076748,144,16,2
92096508,676,784,2
92117316,961,16,2
92137064,1089,324,2
92158896,4,196,2
92177624,0,36,2
92195312,1,961,2
92214012,361,1089,2
92235880,900,225,2
92256688,121,1089,2
92278512,100,144,2
92299324,841,121,2
92320120,169,144,2
92340916,4,196,2
92359604,1369,0,2
92379384,676,6400,2
92401216,225,7225,2
92423056,1764,1089,2
92445932,441,1681,2
92467776,10089,225,2
92490652,0,1156,2
92510420,1,10816,2
92531228,10609,1545,2
92555124,3136,27489,2
92579048,0,1681,2
92598820,3136,12996,2
92622736,21609,1,2
92643512,6561,1764,2
92666400,15376,14641,2
92691360,0,2209,2
92711140,0,24964,2
92731948,7225,900,2
92753780,2401,121,2
92775616,1936,1225,2
92798508,4,1024,2
92818244,1936,2209,2
92841148,22801,289,2
92864024,19321,1764,2
92887932,900,1225,2
92909780,3249,9801,2
92932644,0,11881,2
92953460,0,6241,2
92973216,0,7225,2
92992980,6241,1521,2
93015860,441,144,2
93036652,16,1521,2
93057460,7396,11236,2
93081392,29241,9,2
93102184,15376,2209,2
93126092,3600,529,2
93147944,676,0,2
93166664,4356,16,2
93187464,324,0,2
93206180,400,529,2
93226972,7056,100,2
93248844,1156,529,2
93270664,4356,25,2
93291444,1156,64,2
93312276,441,961,2
93333076,3481,169,2
93354892,3249,1296,2
93377788,784,484,2
93398600,324,0,2
93417296,36,1521,2
93438108,1,5625,2
93457852,441,4624,2
93479704,5184,529,2
93501560,729,324,2
93522336,676,225,2
93543136,4,4761,2
93562912,64,2601,2
93583700,36,6724,2
93604504,1156,6561,2
93627380,6561,144,2
93649232,4225,729,2
93671056,49,121,2
93690812,225,1225,2
93712680,36,16,2
93731380,4,169,2
93750104,529,0,2
93768836,4,25,2
93786512,1764,16,2
93807312,8464,4,2
93827052,169,1296,2
93848900,324,6241,2
93870748,2916,324,2
93892572,256,361,2
93913380,196,0,2
93932096,4,3969,2
93951868,121,2704,2
93973704,289,3136,2
93995544,256,3969,2
94017384,784,1,2
94036108,2601,64,2
94056912,1936,576,2
94078752,961,2500,2
94100600,441,961,2
94121396,49,100,2
94141160,144,529,2
94161960,16,289,2
94181716,36,16,2
94200440,1,64,2
94218124,324,144,2
94238916,1600,64,2
94259716,484,49,2
94279468,49,49,2
94298204,441,25,2
94317956,1225,36,2
94338756,36,256,2
94358508,121,196,2
94379316,484,1,2
94398016,2116,4225,2
94420884,1764,11236,2
94444832,9,676,2
94463548,3844,529,2
94485384,576,196,2
94506200,1156,676,2
94528028,900,1764,2
94549864,225,1,2
94568584,961,81,2
94588348,4689,196,2
94610168,0,1024,2
94629948,3721,121,2
94651792,0,2304,2
94671540,32761,484,2
94694396,2025,1444,2
94717288,9409,1849,2
94740172,6724,9,2
94759944,8464,1225,2
94782828,2304,676,2
94804660,4225,900,2
94826484,0,576,2
94845232,2884,2500,2
94868104,0,3721,2
94887868,0,1849,2
94907624,11748,3481,2
94931540,13456,2500,2
94955452,9216,49,2
94976252,0,729,2
94994976,5329,144,2
95016816,144,36,2
95036580,3969,400,2
95058420,2401,100,2
95080256,30625,1681,2
95104188,22201,400,2
95127064,11025,324,2
95149940,10404,9,2
95170736,17956,1681,2
95194648,25,3721,2
95215476,1849,0,2
95235216,5476,529,2
95257072,6561,1296,2
95279944,576,36,2
95299712,225,144,2
95320516,961,4,2
95339228,4356,289,2
95361072,144,676,2
95381876,9,169,2
95400588,361,25,2
95420340,2304,289,2
95442192,2916,256,2
95464016,15876,441,2
95486908,169,1849,2
95508744,8100,16,2
95529532,484,324,2
95550340,6084,1089,2
95573220,961,100,2
95594016,484,256,2
95614812,169,324,2
95635612,15376,121,2
95658508,7056,1681,2
95681384,9216,961,2
95703228,0,841,2
95721948,27225,7921,2
95745856,0,4761,2
95765644,17408,2401,2
95789528,7364,4761,2
95812404,22500,1764,2
95836352,5041,81,2
95857140,81,256,2
95876896,0,2025,2
95896648,30625,3481,2
95920580,7921,144,2
95942432,3249,49,2
95963228,1521,2025,2
95986104,64,361,2
96005844,20164,225,2
96028728,8464,4225,2
96051620,400,100,2
96072416,2809,441,2
96094268,100,1521,2
96116112,14884,576,2
96138976,7569,64,2
96159784,841,441,2
96180576,7921,441,2
96202420,5476,576,2
96224248,26896,400,2
96247148,11025,2209,2
96271060,1024,324,2
96292904,144,36,2
96312660,1681,81,2
96333452,8836,196,2
96355284,4624,16,2
96376092,5776,441,2
96397932,13924,625,2
96420816,5329,484,2
96442676,484,4,2
96461384,484,144,2
96482200,961,1,2
96500908,1024,400,2
96522744,484,441,2
96543544,16384,900,2
96566416,20736,2401,2
96590332,5329,400,2
96612188,6084,576,2
96634028,8649,4,2
96653792,6561,144,2
96675628,1600,4,2
96695376,10201,121,2
96718260,2916,196,2
96740104,1936,729,2
96761932,10201,2601,2
96785872,3364,0,2
96805632,0,100,2
96824344,16384,144,2
96847216,14400,1936,2
96871136,19321,64,2
96893004,25,4,2
96910668,0,100,2
96929368,14400,3721,2
96953284,12100,484,2
96976192,2025,169,2
96998024,3969,4,2
97017784,625,1296,2
97039628,9216,100,2
97061448,10201,1089,2
97085368,27556,4225,2
97109296,16900,4489,2
97133220,0,25,2
97150876,2585,3249,2
97173800,14553,5625,2
97197696,14641,1024,2
97221612,3249,1,2
97241392,900,49,2
97261152,3600,1089,2
97284032,144,0,2
97302756,7569,4,2
97322504,14400,2025,2
97346424,4489,324,2
97368256,2500,576,2
97390128,529,16,2
97409868,289,9,2
97428576,100,1024,2
97450408,1681,121,2
97472256,6241,169,2
97494096,841,121,2
97514904,3721,225,2
97536740,1936,0,2
97556524,1,1,2
97573164,5776,121,2
97594984,169,196,2
97615788,676,0,2
97634504,6724,36,2
97655312,729,625,2
97676104,484,49,2
97695876,324,9,2
97714576,3844,289,2
97736416,121,289,2
97757236,7225,49,2
97778028,5329,784,2
97799864,625,529,2
97820648,30276,1089,2
97844596,13988,6724,2
97868492,0,3600,2
97888252,225,25,2
97908028,0,400,2
97926728,21904,1369,2
97950660,24336,144,2
97973560,11236,441,2
97996424,5041,81,2
98017208,4356,1600,2
98040108,576,36,2
98059872,11025,121,2
98082728,12996,100,2
98105628,900,225,2
98126440,196,64,2
98146192,1225,1,2
98165948,9,36,2
98183616,400,225,2
98204432,25,49,2
98223144,900,441,2
98243940,361,225,2
98264732,9,16,2
98282408,0,4,2
98299080,16129,256,2
98321944,1545,2116,2
98344820,10201,2500,2
98368748,1849,121,2
98390572,21904,441,2
98413452,0,529,2
98432172,8100,1089,2
98455068,1225,225,2
98476912,49,529,2
98496668,3136,9,2
98516412,1936,400,2
98538268,324,529,2
98559052,19600,529,2
98581920,11025,1681,2
98605860,3721,0,2
98625616,6724,64,2
98646408,841,625,2
98667224,4,4,2
98683840,14161,121,2
98706748,5329,1089,2
98729612,7225,100,2
98751456,1,225,2
98770172,0,4624,2
98789952,15689,6724,2
98813860,11449,121,2
98836736,1849,576,2
98858580,10609,1681,2
98882492,1028,729,2
98904336,0,1681,2
98924092,6889,2601,2
98946968,900,841,2
98967772,1225,81,2
98988576,9216,49,2
99009376,14884,361,2
99032272,27225,1089,2
99056172,6084,1024,2
99079060,14884,81,2
99100908,3721,400,2
99122744,400,100,2
99143540,1024,0,2
99163300,361,289,2
99184100,1225,324,2
99205928,6400,676,2
99227780,3249,81,2
99248568,7569,324,2
99270416,36,64,2
99289148,1936,0,2
99308900,18769,16,2
99330736,8281,1024,2
99353628,2209,4,2
99373392,2500,1225,2
99396268,49,4,2
99413932,4096,36,2
99434740,441,900,2
99455528,529,144,2
99476340,324,441,2
99497148,144,81,2
99516900,8649,169,2
99538724,16129,2304,2
99562656,144,225,2
99583468,3721,784,2
99605288,1024,25,2
99626104,11664,961,2
99648980,81,225,2
99668736,5041,324,2
99690580,484,256,2
99711388,3600,81,2
99732184,7056,961,2
99754028,225,289,2
99774832,2809,121,2
99796636,28900,841,2
99819544,0,3025,2
99839288,1156,0,2
99859040,4356,576,2
99880888,169,900,2
99901704,7396,4,2
99921444,19321,64,2
99943304,3721,2401,2
99966180,0,36,2
99983852,0,7569,2
100003604,0,3136,2
100024412,64,36,2
100044188,5184,64,2
100066028,121,81,4
100086820,0,81,4
100105536,4160,4489,4
100129452,24964,3844,4
100154412,0,121,4
100174184,0,1369,4
100194976,3969,1024,4
100218892,361,81,4
100239688,324,49,4
100260496,121,625,4
100282328,256,36,4
100303140,2601,169,4
100326016,1225,784,4
100348888,5476,256,4
100371800,3600,0,4
100392580,900,324,4
100414416,81,0,4
100433156,9025,9,4
100453932,17956,441,4
100477836,6241,36,4
100499704,0,3025,4
100520488,14161,2025,4
100545460,1849,4,4
100566264,17161,1,4
100588096,11664,625,4
100612012,441,2601,4
100634908,225,1369,4
100657784,7396,169,4
100680656,169,225,4
100702500,25,841,4
100723292,0,3600,4
100744088,0,7056,4
100764908,4900,1225,4
100788820,0,676,4
100808576,28224,2401,4
100833544,0,529,4
100853316,9801,361,4
100876176,0,2209,4
100896976,0,5329,4
100917792,8836,1225,4
100941700,3969,64,4
100963536,32761,49,4
100986412,18564,4624,4
101011376,0,5776,4
101032192,8836,441,4
101055044,27889,4,4
101076904,19321,1089,4
101101868,1225,676,4
101124744,1,9,4
101142416,289,9,4
101162192,400,144,4
101184032,81,961,4
101204820,9409,16,4
101226664,5184,900,4
101249552,625,49,4
101270348,49,100,4
101291144,28900,1,4
101312988,1028,2500,4
101336900,0,3249,4
101357704,21025,1600,4
101382660,16384,289,4
101406572,19600,1681,4
101431544,0,361,4
101451292,1024,225,4
101474176,18769,4,4
101496024,19881,900,4
101519940,8836,2116,4
101543860,24964,529,4
101567796,784,625,4
101589608,5625,0,4
101610412,2209,225,4
101633308,11664,0,4
101655144,324,144,4
101676976,5329,196,4
101699876,169,576,4
101721712,15376,484,4
101745600,4225,3025,4
101769540,625,49,4
101790348,4761,400,4
101813224,144,289,4
101835076,16,36,4
101854828,1369,324,4
101877696,3600,256,4
101900572,1681,676,4
101923464,0,676,4
101943208,0,2500,4
101964032,0,2916,4
101984816,32041,2500,4
102009776,4761,961,4
102032660,513,225,4
102054520,21489,5184,4
102079444,0,5041,4
102100256,13924,1521,4
102125208,2401,1225,4
102149140,18225,225,4
102173076,16900,1681,4
102198016,11664,324,4
102221952,8836,100,4
102244816,6241,289,4
102267700,29584,625,4
102291632,12544,961,4
102315552,11881,9,4
102337392,3136,2025,4
102361320,81,144,4
102382124,4,36,4
102400840,169,1,4
102420592,144,400,4
102442436,4,144,4
102462204,9,196,4
102481952,16,289,4
102502764,0,1,4
102520436,49,81,4
102540192,1,9,4
102557876,36,225,4
102578680,36,36,4
102598432,25,196,4
102619232,36,841,4
102640032,8836,4,4
102660824,28561,784,4
102684744,1024,25,4
102706572,12321,2209,4
102731544,361,961,4
102753392,484,256,4
102775220,0,4,4
102792892,0,1521,4
102813692,5476,121,4
102836576,8100,2500,4
102860488,7921,256,4
102883376,27225,784,4
102907284,4352,3025,4
102931224,0,16384,4
102953056,0,0,4
102970716,15625,0,4
102992572,27489,1156,4
103017532,0,100,4
103037312,28713,16,4
103060164,0,32400,4
103082016,1849,27556,4
103106972,1936,100,4
103129856,4,3249,4
103150660,1681,1764,4
103174584,4,10609,4
103196412,361,24649,4
103220352,25,7396,4
103242188,4489,0,4
103262968,16641,256,4
103286900,6724,6400,4
103310820,8100,1156,4
103334744,3249,225,4
103357628,5476,256,4
103380496,256,21904,4
103404412,3249,28900,4
103429380,6400,121,4
103452260,1,6561,4
103473048,3969,8464,4
103497000,6400,14641,4
103521944,25281,2601,4
103546904,4096,5476,4
103570828,6084,2809,4
103594728,14161,400,4
103618656,1849,1296,4
103642572,100,1936,4
103665444,81,9216,4
103687288,36,21316,4
103710168,31684,7396,4
103735120,20736,5929,4
103760108,1225,196,4
103782980,9,1225,4
103803780,2304,1225,4
103827704,2209,196,4
103850572,5625,64,4
103872420,4096,1521,4
103896352,6084,900,4
103919204,24025,7056,4
103944160,1156,18496,4
103969128,169,0,4
103988892,0,0,4
104006572,25668,32041,4
104032592,0,8649,4
104053380,12321,3025,4
104078320,1681,8649,4
104102260,3025,24649,4
104127220,3481,17956,4
104152176,24025,0,4
104174024,18225,4096,4
104198988,5041,9,4
104219756,18769,4761,4
104244748,9,10201,4
104266576,5184,2601,4
104290504,18225,1,4
104312352,7921,49,4
104334188,1089,1444,4
104358104,4900,5041,4
104382032,26244,4,4
104403852,21025,5041,4
104428844,169,441,4
104450656,400,529,4
104472500,49,3025,4
104494344,441,100,4
104516192,9,3481,4
104536984,100,7569,4
104559868,1369,64,4
104581696,625,529,4
104603548,324,2916,4
104626424,64,16900,4
104649292,4900,1521,4
104673200,30625,529,4
104697136,2916,1764,4
104721048,2809,3481,4
104744976,196,196,4
104766840,324,100,4
104788660,676,81,4
104809448,1444,10609,4
104834416,676,8649,4
104857292,7056,169,4
104880192,1764,400,4
104903064,36,1089,4
104924908,121,1,4
104944660,6400,121,4
104967532,21316,64,4
104990416,14884,784,4
105014340,121,1936,4
105037216,25921,2809,4
105062164,16900,1849,4
105087136,841,1024,4
105110020,5041,0,4
105130836,10609,324,4
105154756,12544,1225,4
105179692,30625,7569,4
105204656,10404,13689,4
105230660,2704,1225,4
105254588,9801,2025,4
105278516,1,81,4
105297228,5041,361,4
105320108,625,225,4
105341932,2704,9,4
105362748,5625,1521,4
105386656,4356,4489,4
105410588,3721,4624,4
105434508,7744,64,4
105456332,19321,6241,4
105481316,361,1156,4
105504184,121,1024,4
105527068,961,1600,4
105549952,0,1024,4
105570740,784,9604,4
105593636,1,19600,4
105615472,15876,441,4
105639372,8100,4761,4
105663296,1521,2704,4
105687236,0,2209,4
105708008,225,36,4
105728836,3600,1444,4
105752744,18769,1600,4
105777696,0,10000,4
105799536,1156,12544,4
105824504,17956,4,4
105846348,6889,2500,4
105870256,121,100,4
105892100,2500,1681,4
105916000,5625,9801,4
105939936,25,6084,4
105961780,9,1,4
105979456,19600,4,4
106001304,9604,9,4
106022112,16129,1089,4
106047056,29929,196,4
106070980,6889,441,4
106093856,15625,1521,4
106118812,10816,5184,4
106143788,144,1156,4
106166660,225,0,4
106186416,196,100,4
106208272,1,16,4
106226988,4,49,4
106245704,1600,729,4
106268580,1600,484,4
106291472,900,81,4
106312260,3249,121,4
106335144,4489,5929,4
106359072,1600,10609,4
106384024,5041,121,4
106406896,8464,361,4
106429788,36,400,4
106450572,2916,169,4
106473448,7396,2209,4
106497384,361,2401,4
106520256,15376,900,4
106544200,12769,2809,4
106569144,3481,1,4
106589940,1936,729,4
106612812,0,9409,4
106633628,4225,11236,4
106658584,9409,169,4
106681456,1024,100,4
106704348,13225,576,4
106728264,7744,81,4
106750088,14641,1024,4
106775060,3721,11449,4
106800024,1024,2116,4
106823952,1764,36,4
106845776,3025,64,4
106867612,169,3481,4
106890508,5625,3969,4
106914412,2704,729,4
106937296,441,36,4
106958108,3136,625,4
106980972,2704,121,4
107003872,100,100,4
107025708,49,100,4
107046500,81,1600,4
107068340,484,2809,4
107091220,13924,2809,4
107116168,9025,625,4
107139056,64,100,4
107159856,4624,7744,4
107183784,8649,8281,4
107207700,729,1089,4
107230568,3481,256,4
107253448,144,256,4
107275300,4,196,4
107295064,196,81,4
107315844,2601,9,4
107336652,225,784,4
107358512,1369,64,4
107380344,4096,576,4
107403224,900,25,4
107424028,16,256,4
107444824,361,1,4
107464580,729,196,4
107486424,0,16,4
107505128,7921,729,4
107528028,576,361,4
107549872,31684,5329,4
107574820,2500,3844,4
107598744,225,2025,4
107621616,15625,676,4
107645532,11664,576,4
107669452,16,361,4
107690264,3721,196,4
107713148,6561,2916,4
107737052,169,400,4
107758912,2025,3364,4
107782828,841,1600,4
107805708,8649,81,4
107827548,441,81,4
107848348,3481,16,4
107870176,2916,225,4
107893068,2916,16,4
107914884,4489,2401,4
107938808,6400,441,4
107961704,28224,1089,4
107986640,9025,2704,4
108010592,400,400,4
108032416,961,64,4
108053236,49,400,4
108074044,36,841,4
108094820,4356,0,4
108115632,961,625,4
108137456,3481,144,4
108160344,11881,784,4
108184252,2025,25,4
108206112,3969,324,4
108228988,1444,9,4
108249784,225,9,4
108269540,1,1,4
108287220,12321,2704,4
108312180,22201,9025,4
108337132,400,4225,4
108360036,9216,25,4
108381868,4761,121,4
108404760,0,36,4
108423476,36,841,4
108444264,16,529,4
108465068,1521,1,4
108485880,10816,49,4
108508740,900,81,4
108529536,4096,144,4
108552428,4624,961,4
108575288,5776,2809,4
108599212,576,5329,4
108622096,8649,1225,4
108646032,7225,729,4
108668884,21609,4096,4
108693868,1849,3969,4
108717772,9025,3600,4
108741708,49,9,4
108760432,2025,4096,4
108784340,441,441,4
108806192,12321,441,4
108830096,30976,784,4
108854004,5041,5041,4
108877936,400,1296,4
108900832,529,784,4
108922664,0,36,4
108941380,400,529,4
108963232,36,1024,4
108985068,7056,1936,4
109008980,17689,441,4
109032896,5929,2500,4
109056816,2116,1156,4
109080748,289,64,4
109101548,1600,400,4
109124436,81,49,4
109144188,1156,9,4
109164976,7225,625,4
109187876,3136,225,4
109210760,484,841,4
109232596,1296,1849,4
109256512,121,1849,4
109279388,2601,0,4
109300184,1600,1681,4
109324104,841,1849,4
109346992,1521,484,4
109369872,100,8281,4
109392744,1,20449,4
109414604,81,961,4
109435384,5476,121,4
109458264,1521,676,4
109481164,729,36,4
109501936,576,841,4
109523784,3721,289,4
109546648,30625,841,4
109570592,8836,2025,4
109594500,3600,1,4
109615312,16641,1,4
109637148,13225,16,4
109660028,900,3249,4
109682912,196,4,4
109702668,484,3600,4
109725552,2401,841,4
109748436,3249,16,4
109770268,1600,961,4
109793152,7056,1225,4
109817060,20164,2601,4
109842016,0,2601,4
109862812,4489,196,4
109885696,5776,3249,4
109909620,9604,5184,4
109933528,3600,256,4
109956428,17161,2704,4
109981372,10201,324,4
110005300,7921,576,4
110028192,484,1296,4
110051060,289,144,4
110072900,841,961,1
110094752,1521,1296,1
110118664,576,2916,1
110141540,400,529,1
110163380,1849,36,1
110185216,784,961,1
110207064,484,529,1
110228900,256,361,1
110250748,676,64,1
110271556,121,1024,1
110294424,1156,9,1
110315224,7921,9,1
110336036,3136,784,1
110358908,49,100,1
110379708,256,1156,1
110402592,841,9,1
110422344,2500,1849,1
110446276,25,784,1
110467056,256,49,1
110487864,576,441,1
110509700,25,1444,1
110531532,1600,2809,1
110555476,3969,5041,1
110579372,625,2809,1
110602280,2401,169,1
110625164,1225,225,1
110648028,16,9,1
110666748,25,49,1
110686520,324,16,1
110707312,400,49,1
110728108,529,36,1
110748912,1,2916,1
110769704,64,1764,1
110791536,17161,576,1
110815448,25921,289,1
110839392,16,64,1
110859156,1225,900,1
110882028,2209,2401,1
110905936,10000,100,1
110929864,9409,961,1
110952752,1600,121,1
110975624,23104,256,1
110999536,100,324,1
111021380,25600,256,1
111045284,31329,2916,1
111070264,2704,1225,1
111094184,11449,16,1
111117072,5041,25,1
111138912,289,196,1
111160736,7744,225,1
111183624,5329,36,1
111205472,361,100,1
111227308,529,289,1
111249144,5929,324,1
111272024,25281,484,1
111295936,13689,1024,1
111320896,196,144,1
111342748,100,81,1
111363540,1089,676,1
111386428,100,100,1
111408264,441,144,1
111430104,2025,64,1
111451960,0,625,1
111471712,1444,900,1
111494592,441,324,1
111516424,16,64,1
111536188,16,576,1
111556992,784,784,1
111578820,3249,144,1
111601708,8281,2401,1
111625620,1296,1521,1
111649548,2704,121,1
111672440,784,400,1
111694272,64,625,1
111715064,529,900,1
111736912,484,484,1
111758756,169,1,1
111778504,169,576,1
111800340,121,289,1
111822192,2401,64,1
111844028,2704,400,1
111866908,3136,4,1
111887704,9025,441,1
111910568,2500,28224,1
111935552,36,19881,1
111958408,2704,225,1
111981284,12769,2401,1
112006256,14161,17956,1
112032268,5929,14641,1
112057236,14641,8836,1
112082156,0,2401,1
112102960,7744,7396,1
112126880,4761,16,1
112148736,5329,36,1
112170580,49,841,1
112191372,144,625,1
112213224,1600,3969,1
112237136,5476,1,1
112257936,100,1089,1
112280828,49,324,1
112301620,900,2916,1
112324504,900,196,1
112346336,3600,9604,1
112370244,10609,17161,1
112396236,12544,11236,1
112422264,9604,21025,1
112447224,144,5184,1
112470108,144,10609,1
112494012,9216,3969,1
112517928,22201,225,1
112541856,3025,6561,1
112565780,5625,49,1
112587612,11025,256,1
112611544,144,7744,1
112634432,2500,1296,1
112658336,0,4096,1
112679140,1089,19044,1
112704096,169,14884,1
112728016,4096,13456,1
112752976,484,8649,1
112775848,4900,1936,1
112799784,4225,3025,1
112823700,4489,1024,1
112847628,10404,1,1
112869476,361,100,1
112891308,289,16,1
112912104,144,1,1
112931880,9,484,1
112951628,0,289,1
112971368,9,8464,1
112992168,1444,14400,1
113017156,5929,841,1
113040036,2209,169,1
113062900,4,0,1
113080596,0,1225,1
113101388,196,3025,1
113124260,121,2025,1
113147152,1,441,1
113166916,529,1,1
113186660,2401,49,1
113208516,5476,4,1
113229316,2116,100,1
113252188,121,441,1
113274036,121,196,1
113295872,169,529,1
113317708,2304,225,1
113340600,1369,25,1
113362436,0,9,1
113380120,225,36,1
113400916,144,0,1
113420688,9,1,1
113438364,0,1,1
113456024,100,100,1
113477880,289,324,1
113499712,400,25,1
113520512,484,81,1
113541316,196,49,1
113562116,9,16,1
113580832,4,49,1
113599564,1,81,1
113618284,361,9,1
113638036,400,25,1
113658824,256,25,1
113679636,441,0,1
113699388,169,9,1
113719156,144,25,1
113739952,25,289,1
113760756,4,25,1
113779476,36,49,1
113799232,169,169,1
113821096,4,49,1
113839800,4,0,1
113857476,25,16,1
113877236,36,81,1
113896992,289,4,1
113916760,400,196,1
113938592,576,81,1
113959388,784,0,1
113979148,100,25,1
113999956,4,16,1
114018696,0,225,1
114038436,121,36,1
114059220,256,4,1
114079016,9,4,1
114096680,9,144,1
114116440,4,9,1
114134112,441,169,1
114155944,2025,25,1
114177796,361,1,1
114197564,9,9,1
114215236,64,1,1
114233944,841,25,1
114254752,3136,676,1
114277652,1681,441,1
114300512,100,25,1
114321312,16,49,1
114341080,25,144,1
114361888,49,25,1
114381640,25,4,1
114400356,289,225,1
114422192,676,121,1
114444024,484,16,1
114464840,0,9,1
114482508,676,0,1
114502256,6084,169,1
114525140,4900,1444,1
114549072,361,1024,1
114571960,0,324,1
114591716,81,196,1
114612520,121,361,1
114634352,0,49,1
114653064,1089,361,1
114675956,3136,1225,1
114699864,225,1089,1
114722744,441,25,1
114743544,4356,0,1
114764352,3969,16,1
114786188,1,49,1
114804916,169,64,1
114825716,4,36,1
114844420,36,0,1
114863164,441,1,1
114882908,169,25,1
114903712,1369,0,1
114924512,900,25,1
114945316,169,36,1
114966116,0,9,1
114983792,1,9,1
115001484,16,64,1
115021232,49,16,1
115040992,324,25,1
115061812,1,81,1
115080516,225,0,1
115100268,169,144,1
115122104,784,49,1
115142916,4,25,1
115161644,225,36,1
115182436,196,25,1
115203236,400,1,1
115222988,49,100,1
115243780,9,196,1
115263552,0,169,1
115283324,81,64,1
115303080,169,4,1
115322832,36,16,1
115342592,441,16,1
115363396,25,4,1
115382124,100,49,1
115402912,36,36,1
115422676,64,144,1
115443468,289,0,1
115463232,100,9,1
115483004,25,361,1
115503796,36,81,1
115523556,196,36,1
115544360,81,225,1
115565156,1,64,1
115583880,64,9,1
115602596,16,9,1
115621308,361,81,1
115642108,3481,49,1
115663956,4225,64,1
115685804,784,25,1
115706604,16,4,1
115725312,196,25,1
115746112,841,1,1
115765880,225,4,1
115785636,4,49,1
115804352,64,9,1
115823076,4,0,1
115840744,4,1,1
115858428,576,1,1
115878184,225,16,1
115898988,1156,9,1
115919780,225,256,1
115941640,289,1156,1
115964516,16,144,1
115985312,361,1,1
116005080,256,16,1
116025884,1,1,1
116043556,0,1,1
116061252,0,49,1
116079960,9,225,1
116099712,1,121,1
116119464,36,196,1
116140268,1024,121,1
116163152,1089,25,1
116185000,225,4,1
116204756,64,25,1
116224512,144,100,1
116246360,121,36,1
116267164,1,25,1
116285872,16,169,1
116306680,1,1,1
116324340,49,121,1
116345156,121,100,1
116366996,49,100,1
116387776,529,121,1
116409628,2304,196,1
116432516,196,9,1
116452260,4,49,1
116471000,4,81,1
116489716,64,169,1
116510512,25,16,1
116530284,196,81,1
116551080,196,441,1
116572928,49,225,1
116593724,81,0,1
116612448,36,1,1
116631160,81,49,1
116650912,1,36,1
116669640,400,100,1
116691484,1369,225,1
116714356,144,4,1
116734120,0,16,1
116752828,144,1,1
116772592,121,16,1
116793416,0,1,1
116811080,25,16,1
116830840,64,1,1
116849548,16,36,1
116869324,1,1,1
116886984,361,0,1
116906748,4356,121,1
116929640,2401,841,1
116952504,121,64,1
116973308,64,4,1
116992040,121,25,1
117012848,1,16,1
117031556,1,16,1
117050272,1,25,1
117069000,1,4,1
117086684,289,64,1
117107476,576,9,1
117127244,9,1,1
117144928,196,36,1
117165700,625,49,1
117186504,289,4,1
117206284,25,64,1
117226036,81,4,1
117244748,289,36,1
117265556,64,169,1
117286352,36,16,1
117306104,81,25,1
117325884,144,16,1
117346680,1225,1,1
117367476,625,100,1
117389308,36,169,1
117410124,16,49,1
117429880,169,25,1
117450672,324,0,1
117470436,121,1,1
117490208,1,9,1
117507872,36,9,1
117526584,1156,1,1
117547396,4356,36,1
117569228,1681,81,1
117591084,49,1,1
117609804,25,4,1
117628508,36,49,1
117648276,1156,0,1
117669088,1369,49,1
117690920,121,25,1
117711712,1,25,1
117730436,9,1,1
117748120,0,9,1
117765788,144,36,1
117786580,196,0,1
117806364,361,1,1
117826108,2304,0,1
117846908,2916,400,1
117869808,676,361,1
117891628,4,100,1
117911400,0,121,1
117931160,0,9,1
117948836,64,4,1
117967556,81,64,1
117987316,0,25,1
118006044,25,16,1
118025800,16,4,1
118044528,256,4,1
118064272,25,64,1
118084016,256,64,1
118104832,529,0,1
118124592,625,196,1
118146440,64,4,1
118165148,49,121,1
118185944,784,25,1
118206768,4,9,1
118224432,100,4,1
118244192,49,100,1
118265000,81,225,1
118285800,36,36,1
118305556,9,0,1
118323244,4,1,1
118340924,25,1,1
118359636,49,36,1
118379396,0,49,1
118398124,16,25,1
118417872,25,4,1
118436588,16,64,1
118456364,81,25,1
118476112,0,0,1
118493788,0,9,1
118511480,1,169,1
118531252,16,64,1
118551000,25,25,1
118570756,81,36,1
118590520,64,9,1
118609256,25,16,1
118628992,4,100,1
118648740,225,0,1
118668524,225,36,1
118689328,9,9,1
118706988,16,25,1
118726756,25,64,1
118746520,0,9,1
118764188,441,1,1
118783940,1849,49,1
118805800,1444,144,1
118828676,9,100,1
118848436,289,1,1
118868196,196,36,1
118889004,25,16,1
118908760,9,16,1
118927476,25,4,1
118946196,0,16,1
118964916,0,36,1
118983628,36,64,1
119003396,121,196,1
119025232,196,100,1
119047080,49,9,1
119065796,100,0,1
119085556,121,49,1
119106356,16,64,1
119126116,36,9,1
119144836,36,4,1
119163560,4,64,1
119182264,81,64,1
119202044,1,9,1
119219720,16,9,1
119238440,36,0,1
119257164,196,9,1
119276920,9,16,1
119295636,4,36,1
119314348,1,100,1
119334124,4,100,1
119353880,36,49,1
119373636,36,16,1
119393400,100,1,1
119413156,64,4,1
119431880,1,36,1
119450584,64,1,1
119469324,0,361,1
119489076,64,25,1
119508840,1,4,1
119526528,144,0,1
119546284,36,1,1
119564992,49,16,1
119584744,144,64,1
119605568,36,100,1
119626360,25,4,1
119645080,49,49,1
119664840,49,36,1
119684584,784,36,1
119705392,529,169,1
119727240,676,64,1
119748032,841,144,1
119769872,36,49,1
119789636,9,9,1
119807316,16,25,1
119827076,121,81,1
119847872,144,9,1
119867640,225,64,1
119888432,100,36,1
119909240,16,9,1
119927956,121,64,1
119948760,36,9,1
119967476,1,4,1
119985144,0,100,1
120004912,1,36,1
120023632,9,9,1
120041304,625,81,1
120062120,1156,81,3
120083964,1,16,3
120102676,361,4,3
120122444,16,9,3
120141164,361,0,3
120160920,196,121,3
120182744,121,441,3
120204596,169,144,3
120226428,4,1,3
120244116,1,4,3
120261808,81,9,3
120280524,0,36,3
120299236,64,36,3
120319008,4,81,3
120337724,16,256,3
120358504,81,9,3
120377224,256,144,3
120399084,225,4,3
120418844,169,4,3
120438596,196,121,3
120460440,1,324,3
120480196,16,81,3
120499952,36,256,3
120520760,0,576,3
120540504,400,100,3
120562348,1444,81,3
120584180,225,225,3
120606036,16,4,3
120624752,4,0,3
120642436,16,9,3
120661156,144,25,3
120681956,529,49,3
120702748,121,9,3
120722520,25,16,3
120742276,64,49,3
120762028,49,16,3
120781792,1,16,3
120800524,169,25,3
120821312,1089,9,3
120842108,961,144,3
120863964,1,49,3
120882684,529,9,3
120902432,400,4,3
120922200,81,25,3
120941964,16,36,3
120961712,1,16,3
120980428,4,81,3
120999164,0,36,3
121017884,81,169,3
121038676,225,361,3
121060520,81,4,3
121079228,400,0,3
121098992,961,0,3
121118764,729,25,3
121139552,0,36,3
121158268,484,4,3
121178032,144,64,3
121198832,9,25,3
121217568,4,0,3
121235240,36,1,3
121253956,0,1,3
121271636,49,0,3
121290344,4,0,3
121308040,25,49,3
121327804,4,100,3
121347552,1,9,3
121365224,16,49,3
121385000,25,81,3
121404764,4,4,3
121422436,16,9,3
121441152,36,25,3
121460924,16,1,3
121479640,0,16,3
121498360,9,4,3
121516028,1,529,3
121535796,9,729,3
121555560,25,36,3
121575312,0,121,3
121595080,25,196,3
121615876,36,16,3
121635636,36,144,3
121656436,256,484,3
121678272,2025,49,3
121700104,3481,49,3
121721968,1156,64,3
121743796,9,4,3
121761472,81,25,3
121781228,1,49,3
121799960,100,64,3
121820756,1,36,3
121839468,121,16,3
121860280,121,1,3
121880028,196,0,3
121899804,25,9,3
121918516,81,4,3
121937228,289,16,3
121958028,1764,9,3
121978832,361,9,3
121998604,49,0,3
122017320,81,36,3
122037076,4,49,3
122055804,81,0,3
122074524,169,144,3
122096352,0,576,3
122116092,1849,169,3
122138992,5776,529,3
122161876,2809,1156,3
122185792,4,361,3
122205564,961,144,3
122227388,576,121,3
122249244,0,81,3
122267952,100,64,3
122288748,1,729,3
122308500,169,6889,3
122331384,36,6724,3
122353208,484,5929,3
122376096,4,29584,3
122397948,1089,15876,3
122422892,961,0,3
122442656,2916,14884,3
122467616,5476,12769,3
122492588,6724,3364,3
122516516,961,81,3
122537296,17408,1024,3
122562256,0,361,3
122582028,144,11449,3
122605960,196,3721,3
122628824,0,64,3
122647520,21609,144,3
122671452,9604,1681,3
122695356,25921,12321,3
122721368,6288,8804,3
122745288,20449,20900,3
122771296,16641,1156,3
122796252,10816,4900,3
122821216,784,5041,3
122844100,21904,0,3
122865940,1600,0,3
122886724,5625,3136,3
122910660,0,6561,3
122931464,17956,9216,3
122956428,1521,16,3
122978240,28561,4356,3
123003216,13456,784,3
123027152,2116,1,3
123047924,576,100,3
123069796,576,729,3
123091624,16,36,3
123111388,4,169,3
123131140,900,15129,3
123155040,13689,4761,3
123180016,13689,0,3
123201868,31329,6724,3
123226812,0,17408,3
123248632,15876,18225,3
123274652,0,2025,3
123295456,2116,6400,3
123319360,13456,64,3
123342236,29241,4096,3
123367228,0,576,3
123386976,1028,3721,3
123410912,400,225,3
123432736,2401,784,3
123455600,18225,324,3
123479520,5776,20736,3
123504488,8281,14400,3
123529444,16641,21316,3
123555448,29929,0,3
123577276,7225,14852,3
123602268,16,2153,3
123624108,16641,21904,3
123650100,20900,0,3
123671948,4489,0,3
123692740,12544,24336,3
123718736,21609,7364,3
123743696,14400,1764,3
123768660,11881,400,3
123792600,81,400,3
123813392,3136,2500,3
123837308,1,9409,3
123858100,12996,1225,3
123883060,9216,900,3
123905916,14641,5476,3
123930892,3108,441,3
123953764,24649,26896,3
123979744,12996,3721,3
124004756,0,29929,3
124026548,30625,3249,3
124051548,16260,1444,3
124076480,0,16129,3
124098316,24964,9025,3
124123288,1521,841,3
124146168,0,12769,3
124168000,20449,25600,3
124194044,1089,1089,3
124217940,0,9,3
124235624,22080,3025,3
124260564,0,2500,3
124281368,18496,2209,3
124306336,0,169,3
124326112,0,2809,3
124346912,2304,361,3
124369780,1156,441,3
124392656,20164,841,3
124416584,20736,1936,3
124441516,27225,1936,3
124466516,0,7744,3
124487292,0,16,3
124505992,2916,4096,3
124529940,19881,9025,3
124554888,28713,0,3
124576720,21316,0,3
124598588,0,625,3
124618320,15129,5625,3
124643280,2704,784,3
124666168,529,529,3
124688016,0,16,3
124706720,14553,8836,3
124731692,0,26244,3
124753544,9604,3633,3
124777440,12305,16129,3
124803432,2064,0,3
124824252,13456,0,3
124846096,6288,2916,3
124870016,0,8836,3
124890820,0,6889,3
124911600,5476,3025,3
124935552,6724,0,3
124956332,0,16900,3
124978168,0,4356,3
124998988,900,4,3
125018728,21316,1225,3
125043660,0,22801,3
125065528,29729,9409,3
125090476,0,10000,3
125112356,0,4900,3
125133124,0,23104,3
125154964,0,10816,3
125176796,529,2601,3
125199696,144,1369,3
125222572,20736,484,3
125246488,16900,529,3
125270440,10404,225,3
125294320,22673,4356,3
125319292,21609,3600,3
125344260,0,30276,3
125366092,0,0,3
125383784,400,64,3
125404600,12769,10609,3
125430588,5329,1936,3
125454520,0,3025,3
125475304,0,1296,3
125496080,0,4489,3
125516900,25600,1024,3
125541836,7744,9025,3
125565780,900,22801,3
125589696,1296,2809,3
125613604,28224,10201,3
125639588,3025,4624,3
125663536,0,5828,3
125684324,0,1545,3
125705136,12864,1764,3
125730092,0,225,3
125749856,0,0,3
125767520,25600,7396,3
125792480,0,0,3
125810192,0,0,3
125827848,27225,24025,3
125853856,25600,24025,3
125879844,6889,11664,3
125904808,0,0,3
125922504,784,29241,3
125946412,29584,0,3
125968248,4761,121,3
125991148,9216,2916,3
126015028,15376,20449,3
126041056,0,23865,3
126062900,10201,729,3
126086812,26244,6400,3
126111804,400,9,3
126131556,2809,3969,3
126155460,23104,7225,3
126180432,0,27556,3
126202280,15625,361,3
126226180,441,1296,3
126249068,7569,1681,3
126272996,3600,256,3
126295868,676,529,3
126317692,3721,36,3
126339548,3844,2304,3
126363444,9025,16641,3
126388432,400,0,3
126408180,15120,625,3
126432072,7056,8649,3
126456016,2809,3136,3
126479924,784,13924,3
126503844,1225,4356,3
126527772,28900,4624,3
126552744,13328,24025,3
126578728,25921,0,3
126600588,27225,0,3
126622392,12305,24336,3
126648408,6825,1764,3
126672336,0,19321,3
126694160,15129,16900,3
126720188,0,729,3
126739940,0,6400,3
126760720,20736,144,3
126784672,1424,8464,3
126808568,0,5929,3
126829364,1089,10404,3
126854320,0,10609,3
126876176,0,961,3
126895936,9801,4225,3
126919852,841,30276,3
126943768,7396,0,3
126964576,1,289,3
126984356,196,1225,3
127007236,576,4356,3
127030088,0,576,3
127049868,0,144,3
127069616,3844,484,3
127092500,21025,2809,3
127117476,0,11025,3
127139284,0,17161,3
127161128,16384,19600,3
127187156,2025,4900,3
127211048,0,3025,3
127231852,9216,11025,3
127256824,0,1156,3
127277612,30625,25600,3
127303596,18496,0,3
127325448,2500,0,3
127346256,529,0,3
127366024,361,18496,3
127389952,0,529,3
127409700,0,28561,3
127431544,2916,23716,3
127456500,25281,7396,3
127481456,3136,28900,3
127506392,4356,27225,3
127531352,0,0,3
127549056,0,31185,3
127570884,3249,20449,3
127595852,1089,0,3
127616660,11025,0,3
127638496,18225,5753,3
127663444,0,1225,3
127684248,0,8100,3
127705044,6241,4,3
127725868,169,1444,3
127748720,0,26244,3
127770556,22201,0,3
127792420,19600,1936,3
127817376,5184,49,3
127839200,0,100,3
127858988,0,5476,3
127879740,13988,11025,3
127905768,26569,4624,3
127930728,7396,0,3
127951524,841,17161,3
127975468,14161,961,3
127999396,10816,0,3
128021212,10816,22500,3
128047208,0,15376,3
128069048,15876,8836,3
128093996,361,324,3
128115868,2025,1600,3
128139788,0,4,3
128157456,27556,3481,3
128182420,576,1764,3
128205288,6400,784,3
128228164,7396,15376,3
128253116,5476,13456,3
128278096,3108,7225,3
128302000,27225,1444,3
128326984,484,0,3
128346752,1,9604,3
128367532,10816,2809,3
128392464,1936,0,3
128413300,26896,15617,3
128439308,361,30564,3
128463208,1225,5625,3
128487120,0,12769,3
128508964,10609,14400,3
128534980,5329,17924,3
128559920,10404,32761,3
128585956,729,4689,3
128608812,0,26273,3
128630656,28561,0,3
128652504,729,13456,3
128676416,16,10000,3
128699288,0,169,3
128719072,3633,26244,3
128743976,1225,0,3
128764828,26880,0,3
128786656,21489,16384,3
128812640,1521,3600,3
128836548,29945,0,3
128858408,8836,21609,3
128883376,0,3721,3
128904148,5776,8281,3
128928096,7396,0,3
128948896,1225,8649,3
128972796,625,29929,3
128996724,0,49,3
129015440,21316,23104,3
129041472,100,7056,3
129064336,0,30976,3
129086180,0,400,3
129105940,10609,7744,3
129130912,6241,676,3
129153780,28900,22801,3
129179772,26569,17689,3
129205768,26569,31684,3
129231768,7921,15376,3
129256720,0,6825,3
129277540,4489,0,3
129298340,4489,3025,3
129322248,676,6400,3
129345124,0,13924,3
129366972,18769,900,3
129390880,196,0,3
129410648,0,26896,3
129432480,10640,3364,3
129457464,0,11025,3
129479276,0,4624,3
129500080,729,256,3
129521952,8464,1444,3
129545860,225,24336,3
129569776,18496,24649,3
129595768,441,0,3
129615528,841,0,3
129635296,10404,1225,3
129660256,16900,2916,3
129685204,32400,0,3
129707076,4,18225,3
129728896,8100,1849,3
129752844,0,9801,3
129773596,23268,400,3
129797524,27889,256,3
129821452,3600,8836,3
129845380,28713,16641,3
129871364,0,26244,3
129893216,18496,2304,3
129918176,484,4761,3
129941044,9540,16129,3
129966004,5625,30276,3
129990972,3481,24649,3
130015920,18225,32041,3
130041952,3025,0,3
130062736,0,144,1
130082488,8836,0,1
130103272,13456,0,1
130125128,19600,10000,1
130151148,121,1764,1
130174008,11664,2601,1
130198988,900,21025,1
130222896,7364,10609,1
130247856,19044,15129,1
130273840,0,27889,1
130295680,11664,21904,1
130321696,1600,11664,1
130346632,19881,784,1
130370544,12996,6288,1
130395520,0,361,1
130415296,29241,0,1
130437160,1024,1369,1
130461072,5329,7396,1
130484968,3481,2916,1
130508888,13225,4356,1
130533856,0,0,1
130551520,20313,0,1
130573396,2585,3721,1
130597284,27556,4900,1
130622256,12100,25065,1
130648256,361,0,1
130668024,0,10000,1
130689848,0,64,1
130708576,0,21025,1
130730404,18564,7569,1
130755380,0,28900,1
130777212,18769,31684,1
130803216,0,23409,1
130825056,12996,9216,1
130850016,729,23409,1
130873944,6288,9,1
130894720,19321,5329,1
130919716,2116,12769,1
130944644,0,2304,1
130965440,12996,21904,1
130991456,0,0,1
131009140,27889,26880,1
131035140,1681,0,1
131055940,100,11025,1
131079868,6400,16641,1
131104836,28224,121,1
131128724,0,15625,1
131150584,12544,25,1
131173464,3721,7569,1
131197344,0,0,1
131215072,8993,0,1
131235836,0,0,1
131253552,2209,0,1
131274320,169,0,1
131294100,1936,21904,1
131319064,17689,26896,1
131345064,361,29584,1
131368984,0,6241,1
131389784,15376,4900,1
131414724,16384,12100,1
131440736,0,27489,1
131462584,2401,29584,1
131487532,5329,16900,1
131512496,10201,9409,1
131537476,1024,529,1
131560316,7905,18769,1
131585308,23409,23865,1
131611296,1545,1764,1
131635200,0,11449,1
131657044,0,4900,1
131677868,0,5929,1
