Timestamp (micros),Sensor1 (mV),Sensor2 (mV)
6036, 0, 0
608383708, 0, 0
608401388, 64, 0
601, 1
608295320, 0, 1
608312988, 0, 0
608330660, 0, 0
608348352, 1, 0
608366036, 0, 0
608383708, 0, 0
608401388, 64, 0
6051612, 10404, 9025
53864, 9216, 3364
56088, 529, 196
58224, 100, 100
61724, 225, 441
79388, 361, 100
97068, 36, 49
112672, 361, 100
131404, 49, 9
146996, 49, 36
163636, 9, 16
179240, 49, 36
195876, 400, 9
212524, 1, 4
227072, 9, 16
242668, 16, 9
258284, 1, 1
272832, 1, 16
288424, 1, 0
303000, 0, 4
317564, 4, 4
332112, 25, 4
347704, 16, 4
363312, 1, 0
377880, 9, 1
392432, 81, 0
408028, 9, 0
422596, 9, 4
437152, 16, 9
452760, 0, 0
467316, 1, 0
481868, 36, 9
497472, 81, 4
513076, 144, 9
529712, 49, 16
546348, 4, 0
560908, 0, 1
575468, 0, 0
590036, 9, 1
604588, 0, 0
619144, 1, 0
633716, 4, 0
648288, 4, 0
662840, 16, 4
678444, 25, 4
694036, 36, 1
709624, 9, 0
724196, 16, 1
739796, 144, 1
756428, 49, 0
772036, 1, 4
786608, 36, 4
802192, 4, 0
816752, 16, 9
832352, 64, 0
847960, 1, 16
863560, 1, 0
878120, 0, 4
892672, 121, 1
909320, 784, 36
927000, 400, 49
944688, 9, 0
959232, 81, 36
975884, 36, 1
991484, 9, 4
1006036, 25, 9
1022668, 36, 4
1039308, 0, 1
1054924, 225, 1
1072588, 225, 36
1091312, 64, 0
1107940, 9, 16
1124608, 144, 1
1142276, 361, 4
1159960, 289, 9
1177644, 169, 1
1195320, 9, 0
1210924, 1, 0
1226520, 1, 0
1242108, 0, 9
1257724, 16, 25
1275392, 49, 0
1292024, 625, 49
1310748, 841, 36
1329472, 1089, 9
1348188, 576, 1
1365872, 400, 49
1384596, 3025, 16
1404344, 5929, 1089
1426188, 1521, 324
1447000, 100, 1
1464684, 196, 49
1483384, 49, 64
1501048, 11025, 144
1522904, 9025, 400
1543696, 20449, 81
1564512, 0, 3600
1583216, 0, 3249
1601948, 9, 169
1619628, 49, 0
1636248, 10201, 169
1658112, 11236, 0
1677856, 36, 169
1696576, 10000, 36
1717392, 1225, 100
1738176, 16384, 25
1758980, 5329, 100
1779800, 1764, 0
1798532, 3136, 196
1819304, 7225, 441
1840092, 5329, 256
1860900, 1936, 64
1880656, 10609, 9
1900440, 676, 9
1918112, 11881, 225
1939932, 13456, 100
1961784, 5184, 144
1982584, 2809, 441
2003388, 196, 256
2023144, 1444, 4
2041852, 3721, 9
2060580, 256, 169
2080336, 12321, 900
2102184, 100, 1600
2122992, 7921, 64
2142752, 3969, 1
2161448, 4096, 289
2182268, 784, 49
2200996, 121, 4
2218672, 225, 361
2238424, 324, 225
2258188, 64, 144
2276908, 3969, 16
2296668, 1089, 121
2317464, 21025, 64
2338268, 3600, 225
2359072, 196, 0
2376744, 529, 9
2394424, 25, 16
2412108, 6889, 49
2431872, 5776, 225
2452664, 1681, 4
2471380, 0, 0
2486980, 900, 36
2505696, 100, 36
2524408, 25281, 484
2546268, 17408, 3249
2569128, 30625, 2809
2592036, 676, 16
2610748, 169, 25
2629480, 324, 9
2647152, 3025, 676
2667940, 7225, 784
2688744, 2304, 64
2708524, 256, 4
2726204, 64, 1
2742824, 2304, 16
2762580, 2209, 9
2781312, 16, 16
2798988, 0, 81
2815620, 1600, 9
2834332, 10404, 64
2855152, 1764, 64
2874908, 2209, 121
2895716, 169, 121
2915472, 1225, 36
2935228, 3136, 1
2953944, 4900, 9
2972652, 144, 121
2992420, 11664, 121
3014248, 25921, 1444
3037128, 32041, 1156
3060028, 26569, 1369
3082904, 2916, 400
3103692, 0, 2304
3122424, 1545, 4761
3144260, 0, 1681
3162984, 0, 3721
3181700, 0, 4624
3200436, 1764, 225
3221232, 25, 49
3238900, 6724, 576
3259700, 4096, 676
3280508, 6400, 225
3301296, 11664, 441
3323152, 5776, 64
3342896, 0, 676
3360584, 8100, 529
3381404, 3721, 16
3401140, 9801, 441
3421948, 4, 361
3439612, 7569, 144
3460432, 6241, 289
3481216, 14161, 16
3502000, 20164, 676
3523864, 324, 576
3543620, 7396, 36
3563372, 0, 1521
3582100, 6561, 3025
3603952, 961, 225
3623688, 529, 0
3641384, 4096, 1936
3663232, 6084, 9
3681936, 29584, 1764
3704824, 4624, 0
3723556, 36, 81
3741212, 2304, 784
3762020, 11025, 324
3783876, 1089, 1
3802588, 6084, 9
3821292, 17161, 400
3843144, 5776, 1444
3864984, 2916, 196
3885780, 10609, 16
3906596, 1849, 576
3927384, 484, 9
3945068, 1156, 225
3965848, 4761, 121
3986664, 10816, 64
4007468, 12544, 1369
4030348, 5776, 289
4051144, 1936, 49
4070904, 19044, 256
4092756, 484, 121
4112500, 23716, 361
4134336, 4225, 441
4155152, 484, 1
4172836, 8464, 1
4191552, 13425, 1681
4214412, 11193, 6889
4237300, 15876, 1849
4260212, 16, 9
4276840, 6889, 4
4295536, 5041, 361
4316336, 324, 484
4336084, 676, 49
4354824, 784, 0
4372500, 2704, 169
4393312, 14884, 324
4415156, 1521, 324
4435952, 0, 49
4452604, 1, 49
4469244, 676, 4
4486912, 256, 100
4506672, 121, 1
4524360, 676, 25
4543076, 1, 1
4558664, 3364, 16
4578436, 4225, 169
4599228, 6724, 361
4620024, 1849, 361
4640816, 29241, 169
4662656, 0, 2809
4681380, 3481, 729
4702180, 5776, 100
4722984, 17689, 225
4744840, 121, 441
4764588, 10816, 64
4785384, 2500, 625
4806184, 484, 16
4824900, 256, 0
4842584, 3025, 25
4862340, 3600, 196
4883156, 361, 0
4900816, 1024, 256
4921620, 6084, 36
4941384, 169, 400
4961156, 6084, 529
4981956, 36, 169
5000656, 529, 361
5020424, 25, 289
5039148, 196, 196
5058908, 9216, 1
5077620, 9216, 1764
5099448, 25, 484
5118184, 5929, 729
5138992, 400, 4
5156656, 21025, 1521
5179540, 100, 169
5199312, 49, 361
5218000, 0, 2025
5236752, 17408, 6400
5259624, 2116, 144
5280428, 784, 49
5299144, 441, 784
5318892, 24649, 441
5340740, 11193, 7056
5363608, 0, 1296
5382356, 1296, 144
5403148, 4489, 529
5423936, 484, 400
5443720, 225, 1089
5464512, 289, 1
5482196, 16, 1
5498816, 1024, 576
5519612, 676, 81
5538336, 7569, 324
5559140, 16129, 289
5580984, 5776, 169
5601768, 1296, 324
5622592, 324, 4
5640264, 4356, 625
5661064, 15376, 484
5682904, 11236, 625
5704756, 9, 729
5722436, 25, 9
5739072, 196, 16
5757784, 81, 144
5776508, 1369, 16
5796268, 7569, 256
5817072, 361, 289
5836832, 2209, 36
5856588, 4096, 144
5877388, 5184, 121
5898180, 16129, 625
5920012, 11881, 729
5941872, 5929, 16
5961624, 0, 1681
5980340, 21025, 900
6002204, 5041, 441
6023000, 841, 529
6042752, 1764, 36
6062508, 196, 9
6080168, 8836, 144
6100968, 9409, 841
6121800, 3481, 529
6142588, 3364, 100
6163376, 14161, 324
6185244, 13924, 1024
6208116, 1296, 256
6228892, 14641, 256
6250748, 17985, 2500
6273612, 0, 4624
6292344, 3025, 1225
6314184, 6724, 49
6333944, 2809, 121
6354740, 64, 0
6371388, 2704, 36
6391156, 2304, 289
6411948, 1681, 36
6431712, 2116, 196
6452512, 36, 25
6470196, 16, 16
6487868, 676, 324
6507644, 289, 9
6525320, 121, 0
6542988, 4, 196
6560656, 1369, 25
6580424, 11664, 49
6601240, 9801, 1024
6623068, 3600, 400
6643876, 36, 1
6660504, 5929, 36
6680256, 1296, 256
6701072, 961, 49
6719784, 5929, 144
6740580, 2401, 361
6761380, 625, 4
6779076, 121, 121
6798832, 361, 16
6817532, 5776, 144
6838360, 13689, 400
6860192, 1225, 484
6880996, 1444, 16
6900764, 784, 196
6920520, 441, 0
6938180, 144, 4
6955864, 144, 16
6974580, 3844, 1
6993316, 13456, 529
7015148, 12100, 900
7036988, 14884, 361
7058828, 6889, 576
7079628, 5625, 400
7100428, 3969, 196
7121220, 900, 100
7140980, 1369, 100
7161768, 1024, 36
7181560, 4624, 225
7202352, 361, 100
7222120, 1, 25
7238756, 9216, 16
7258496, 0, 1444
7277224, 23716, 3249
7300116, 4, 81
7316760, 21025, 625
7338580, 27556, 1024
7361448, 841, 484
7381244, 9409, 256
7402020, 2025, 400
7422820, 324, 16
7441548, 9801, 36
7461316, 3481, 324
7482108, 0, 0
7497704, 0, 49
7514348, 2209, 1
7533064, 1936, 196
7553844, 5476, 169
7574668, 0, 961
7592336, 22801, 3364
7615224, 49, 144
7633944, 7569, 16
7653708, 10201, 1764
7676572, 2304, 121
7697364, 1369, 81
7717148, 64, 289
7735848, 2304, 0
7754560, 0, 196
7772260, 0, 4489
7790992, 5329, 2025
7812824, 196, 49
7831536, 121, 36
7850264, 4489, 441
7871064, 16384, 121
7892896, 14161, 784
7914736, 14161, 1681
7937616, 16129, 841
7959460, 11025, 441
7981324, 2500, 625
8002116, 841, 100
8021868, 841, 0
8039544, 2025, 81
8059304, 5476, 289
8080112, 25, 4
8096740, 5329, 324
8117560, 729, 81
8136256, 25, 9
8152900, 3249, 121
8173704, 29929, 784
8195548, 30564, 2500
8218416, 8448, 5184
8240264, 13689, 2025
8263144, 1, 36
8279784, 10609, 0
8299556, 5184, 169
8320348, 3025, 121
8341140, 3364, 64
8360892, 49, 4
8377544, 4, 121
8395212, 16384, 1024
8418100, 28900, 5041
8440984, 3600, 2304
8462836, 4761, 64
8482572, 0, 900
8500268, 8649, 1296
8522104, 576, 0
8539776, 7056, 1
8558484, 6889, 1156
8580364, 1, 25
8596992, 361, 49
8615724, 169, 324
8635488, 121, 49
8654188, 676, 25
8672904, 8649, 16
8692652, 23104, 625
8714500, 26569, 2304
8737400, 1936, 484
8758184, 324, 100
8777956, 441, 49
8796664, 81, 100
8815384, 1600, 49
8835160, 529, 100
8854920, 36, 100
8873624, 196, 121
8893372, 1600, 169
8914192, 900, 100
8933964, 64, 25
8951636, 9409, 196
8972424, 0, 2401
8991140, 5220, 4225
9012976, 19881, 1369
9035864, 361, 196
9055636, 100, 49
9074344, 9, 0
9089944, 1764, 0
9108676, 2500, 256
9129464, 441, 81
9148180, 841, 0
9165868, 1, 64
9182524, 5476, 49
9202240, 0, 1296
9220976, 32433, 6400
9243856, 0, 4356
9262580, 28561, 1681
9285456, 13225, 1849
9308340, 256, 361
9328108, 256, 121
9347884, 4, 25
9364508, 7225, 25
9384260, 17161, 1521
9407136, 4489, 576
9427924, 64, 64
9445632, 4, 1
9461212, 196, 49
9479944, 2025, 9
9498668, 196, 64
9517396, 9, 49
9534036, 676, 36
9552760, 1, 0
9568360, 289, 25
9587088, 196, 1
9604748, 4, 25
9621372, 4761, 49
9641156, 10404, 729
9663004, 1600, 121
9683792, 49, 16
9701476, 900, 4
9719132, 9801, 225
9739944, 2025, 900
9760728, 23104, 400
9782584, 32761, 3025
9805476, 3481, 225
9826248, 2116, 0
9844972, 2500, 49
9864748, 1600, 16
9884520, 1444, 0
9903236, 625, 16
9921956, 3136, 100
9942752, 3481, 400
9963544, 9, 64
9980172, 10201, 256
10002016, 18769, 625
10024896, 4356, 441
10046756, 289, 144
10067548, 1444, 49
10088356, 1521, 25
10109160, 196, 9
10127872, 784, 49
10147628, 100, 144
10168436, 1936, 9
10188192, 1849, 169
10210028, 1600, 36
10230824, 11449, 324
10253708, 32041, 1764
10277624, 9604, 1024
10300504, 8649, 121
10322332, 0, 1521
10342100, 24649, 2704
10366040, 3721, 36
10386832, 100, 36
10406580, 676, 144
10427388, 441, 361
10448192, 1764, 196
10470032, 7056, 16
10490820, 6400, 676
10512672, 81, 625
10532436, 100, 16
10552196, 400, 0
10570908, 5929, 400
10592744, 11881, 256
10615628, 3249, 144
10637468, 8281, 361
10659304, 26569, 900
10682176, 18496, 529
10705064, 3481, 361
10726900, 1369, 361
10748744, 6561, 256
10770600, 2401, 169
10792424, 2809, 49
10813220, 4900, 225
10835080, 324, 169
10855872, 169, 64
10875636, 729, 9
10894352, 9, 0
10910988, 441, 16
10930744, 16, 4
10948424, 4225, 100
10970264, 4900, 361
10992100, 225, 36
11011864, 1, 1
11028504, 676, 9
11047240, 441, 25
11066988, 441, 16
11086748, 81, 1
11104436, 36, 81
11123140, 10201, 144
11146016, 7744, 1024
11168908, 2209, 64
11189688, 324, 64
11209468, 576, 529
11230272, 4, 1
11246916, 121, 289
11267712, 256, 144
11288512, 49, 1
11306196, 36, 100
11325952, 49, 16
11344676, 1, 9
11361324, 49, 625
11381084, 1, 289
11399784, 0, 441
11418520, 25, 2116
11439312, 49, 2809
11460104, 3600, 1600
11482984, 7056, 0
11502760, 961, 144
11523544, 3844, 0
11543300, 5041, 324
11565148, 36, 169
11584916, 324, 256
11605716, 1225, 9
11625464, 529, 0
11644204, 49, 121
11663956, 144, 16
11683708, 1444, 81
11704512, 3844, 144
11726352, 1296, 0
11746116, 100, 36
11765876, 0, 4
11782524, 256, 1
11801224, 1521, 49
11822012, 3025, 169
11843868, 676, 100
11864668, 1, 16
11882356, 4, 1
11898992, 36, 0
11916680, 36, 16
11935388, 16, 4
11953064, 256, 36
11972836, 784, 16
11992612, 441, 289
12013388, 576, 121
12034204, 1849, 36
12055000, 1089, 16
12075796, 196, 4
12094516, 9, 4
12111164, 49, 4
12128844, 144, 1
12147548, 0, 4
12164192, 0, 9
12180836, 49, 4
12198516, 49, 0
12216196, 36, 1
12233880, 9, 4
12250512, 1, 0
12267156, 4, 0
12283796, 1, 0
12300456, 4, 1
12317080, 4, 0
12333720, 16, 0
12351388, 49, 4
12369072, 100, 16
12388828, 9, 0
12405484, 16, 4
12423144, 81, 4
12440832, 121, 9
12459552, 100, 0
12478276, 4, 1
12494924, 0, 0
12511552, 49, 0
12529232, 9, 0
12545880, 1, 1
12562516, 25, 1
12580208, 16, 1
12597876, 0, 1
12614516, 9, 0
12631156, 0, 0
12647792, 1, 0
12664432, 1, 0
12681068, 1, 0
12697712, 0, 1
12714356, 49, 0
12732036, 49, 0
12749712, 16, 1
12767396, 16, 0
12785084, 64, 0
12802756, 196, 4
12821460, 9, 4
12838124, 0, 0
12854756, 49, 0
12872440, 1, 1
12889064, 64, 0
12906756, 9, 9
12923396, 1, 0
12940028, 36, 4
12957716, 64, 0
12975396, 64, 0
12993080, 324, 4
13011792, 576, 25
13031556, 144, 16
13051316, 0, 0
13067948, 9, 0
13084580, 0, 0
13101240, 49, 1
13118916, 4, 1
13135552, 0, 1
13152188, 1, 1
13168836, 25, 0
13186512, 64, 4
13204188, 289, 36
13223964, 169, 25
13243712, 400, 0
13262424, 1521, 81
13283228, 49, 49
13301964, 100, 16
13321712, 121, 0
13340436, 225, 25
13360200, 1, 1
13376848, 16, 4
13394516, 25, 0
13412200, 36, 16
13430920, 81, 16
13449636, 144, 1
13468348, 9, 9
13484988, 9, 4
13501636, 25, 4
13519308, 49, 1
13536988, 16, 0
13554668, 0, 0
13571328, 9, 4
13587956, 25, 1
13605636, 1, 9
13622264, 16, 0
13639960, 64, 4
13657644, 25, 16
13676356, 4, 0
13692996, 36, 1
13710680, 64, 1
13728348, 16, 0
13746032, 64, 1
13763720, 4, 1
13780356, 4, 0
13796984, 9, 0
13813636, 36, 1
13831316, 16, 4
13848996, 0, 1
13865624, 0, 0
13882264, 0, 0
13898916, 0, 1
13915564, 0, 1
13932196, 4, 0
13948832, 49, 1
13966520, 25, 4
13984196, 16, 0
14001872, 1, 0
14018504, 9, 0
14035164, 1, 1
14051792, 36, 4
14069468, 49, 25
14088188, 1, 9
14104840, 49, 1
14122524, 16, 1
14140192, 4, 0
14156844, 36, 1
14174524, 9, 4
14191160, 81, 4
14208836, 361, 9
14227556, 256, 16
14247320, 36, 4
14264988, 0, 1
14281628, 9, 1
14298284, 49, 1
14315956, 36, 1
14333636, 36, 1
14351304, 289, 4
14370040, 676, 25
14389800, 36, 25
14408512, 121, 0
14427236, 9, 1
14443876, 0, 1
14460516, 25, 1
14478192, 64, 16
14496912, 49, 4
14514604, 4, 9
14531236, 4, 9
14547868, 4, 0
14564512, 9, 0
14581156, 64, 0
14598836, 64, 1
14616508, 49, 1
14634200, 9, 0
14650824, 0, 0
14667472, 4, 0
14684104, 1, 0
14700756, 1, 0
14717396, 9, 1
14734036, 4, 1
14750668, 4, 0
14767320, 1, 0
14783956, 4, 1
14800604, 4, 4
14817236, 49, 4
14834920, 49, 0
14852592, 1, 0
14869232, 1, 0
14885864, 16, 0
14903552, 0, 0
14920188, 4, 1
14936820, 0, 0
14953456, 0, 0
14970108, 0, 0
14986752, 1, 0
15003396, 0, 0
15020040, 4, 0
15036684, 36, 1
15054364, 1, 1
15070996, 64, 1
15088676, 25, 1
15106352, 0, 0
15122992, 1, 0
15139640, 64, 0
15157328, 225, 1
15176036, 36, 0
15193712, 0, 0
15210352, 16, 0
15228036, 81, 4
15245720, 25, 16
15264436, 1, 0
15281068, 1, 0
15297720, 1, 1
15314356, 25, 0
15332036, 36, 1
15349704, 256, 4
15368444, 169, 9
15387168, 1, 0
15403792, 9, 1
15420444, 64, 1
15438116, 81, 9
15455796, 4, 0
15472444, 49, 0
15490120, 9, 1
15506760, 16, 0
15524428, 16, 1
15542116, 9, 0
15558760, 1, 0
15575404, 144, 0
15594112, 64, 9
15611792, 1, 4
15628436, 4, 1
15645084, 1, 1
15661704, 0, 0
15678360, 0, 1
15695004, 1, 1
15711644, 4, 1
15728272, 25, 0
15745948, 9, 0
15762596, 0, 0
15779240, 4, 1
15795880, 36, 1
15813540, 9, 0
15830204, 4, 0
15846832, 64, 4
15864508, 121, 9
15883224, 25, 1
15900916, 0, 1
15917548, 36, 1
15935236, 49, 4
15952924, 1, 1
15969552, 0, 0
15986200, 0, 1
16002824, 0, 0
16019472, 4, 0
16036124, 4, 1
16052764, 16, 4
16070428, 16, 9
16088120, 4, 4
16104764, 9, 0
16121392, 16, 0
16139068, 4, 0
16155716, 1, 1
16172364, 4, 1
16188992, 9, 1
16205628, 0, 1
16222276, 0, 4
16238916, 4, 1
16255556, 9, 0
16272196, 9, 0
16288844, 49, 0
16306524, 100, 4
16325236, 9, 9
16341872, 4, 1
16358516, 36, 0
16376204, 196, 4
16394920, 196, 25
16414664, 9, 9
16431312, 0, 0
16447948, 0, 1
16464592, 1, 0
16481228, 1, 4
16497880, 36, 1
16515548, 256, 9
16534280, 25, 1
16551964, 9, 0
16568600, 25, 0
16586284, 1, 0
16602904, 144, 0
16621636, 49, 9
16639316, 0, 1
16655948, 4, 0
16672592, 49, 0
16690272, 25, 0
16707948, 0, 0
16724596, 4, 0
16741232, 9, 0
16757880, 1, 1
16774508, 16, 0
16792180, 25, 0
16809872, 4, 0
16826520, 25, 4
16844200, 100, 9
16862920, 16, 4
16880588, 1, 0
16897244, 0, 1
16913864, 0, 1
16930516, 0, 0
16947148, 16, 0
16964836, 4, 0
16981476, 0, 0
16998108, 0, 0
17014744, 16, 1
17032444, 25, 1
17050116, 1, 0
17066752, 1, 0
17083388, 16, 0
17101084, 4, 0
17117724, 1, 0
17134348, 1, 4
17151004, 1, 1
17167632, 0, 0
17184284, 4, 0
17200904, 0, 0
17217556, 0, 0
17234196, 0, 0
17250836, 4, 0
17267476, 4, 0
17284112, 16, 0
17301800, 49, 0
17319464, 25, 0
17337148, 25, 0
17354848, 1, 0
17371476, 25, 1
17389156, 1, 1
17405804, 1, 0
17422444, 169, 4
17441152, 36, 4
17458828, 4, 4
17475472, 100, 0
17494196, 625, 36
17513940, 324, 25
17533700, 4, 0
17550360, 16, 1
17568040, 0, 0
17584672, 49, 0
17602352, 36, 9
17620044, 0, 4
17636680, 0, 1
17653308, 0, 0
17669956, 1, 1
17686604, 4, 0
17703240, 0, 1
17719876, 4, 9
17736508, 1, 0
17753156, 1, 1
17769792, 25, 0
17787472, 16, 0
17805148, 9, 0
17821804, 64, 1
17839476, 16, 4
17857156, 16, 1
17874844, 121, 1
17893564, 225, 16
17913312, 64, 16
17932036, 9, 1
17948668, 4, 4
17965316, 16, 1
17983004, 25, 1
18000676, 1, 1
18017324, 1, 0
18033952, 0, 0
18050592, 4, 1
18067224, 0, 1
18083884, 9, 0
18100520, 81, 0
18118192, 36, 4
18135868, 1, 0
18152524, 9, 0
18169156, 81, 1
18186828, 64, 1
18204512, 4, 0
18221160, 4, 1
18237796, 0, 4
18254440, 9, 1
18271068, 1, 0
18287720, 1, 0
18304352, 25, 0
18322036, 64, 1
18339712, 1, 4
18356352, 9, 0
18372992, 1, 0
18389632, 0, 1
18406276, 1, 0
18422920, 25, 0
18440604, 121, 1
18459316, 9, 4
18475948, 1, 0
18492604, 1, 0
18509236, 9, 4
18525864, 16, 1
18543560, 1, 1
18560204, 9, 1
18576828, 0, 0
18593476, 0, 0
18610108, 16, 1
18627792, 0, 0
18644436, 1, 0
18661072, 1, 4
18677708, 4, 0
18694356, 1, 0
18710996, 9, 0
18727640, 36, 1
18745308, 36, 0
18762992, 25, 0
18780668, 1, 1
18797308, 36, 0
18815000, 9, 1
18831640, 9, 0
18848268, 9, 0
18864904, 4, 0
18881560, 4, 1
18898196, 0, 1
18914836, 0, 1
18931468, 0, 0
18948112, 0, 0
18964752, 0, 0
18981400, 0, 0
18998032, 1, 0
19014672, 0, 0
19031312, 0, 0
19047956, 4, 4
19064596, 1, 1
19081236, 0, 1
19097884, 4, 0
19114520, 0, 0
19131148, 1, 0
19147800, 9, 0
19164440, 1, 0
19181076, 0, 0
19197712, 1, 4
19214360, 0, 4
19230992, 4, 0
19247644, 49, 0
19265316, 25, 1
19283000, 0, 0
19299636, 0, 0
19316276, 1, 4
19332912, 25, 1
19350592, 64, 4
19368276, 16, 1
19385956, 9, 0
19402588, 81, 1
19420284, 81, 1
19437956, 25, 0
19455628, 49, 1
19473304, 16, 0
19490996, 25, 0
19508680, 49, 4
19526344, 36, 0
19544028, 1, 0
19560684, 1, 1
19577308, 4, 0
19593944, 16, 4
19611624, 25, 1
19629316, 36, 1
19647004, 16, 4
19664676, 1, 1
19681312, 4, 0
19697964, 1, 0
19714604, 0, 0
19731224, 9, 0
19747876, 4, 0
19764516, 1, 0
19781168, 4, 0
19797796, 9, 0
19814436, 9, 0
19831072, 0, 0
19847724, 4, 0
19864352, 1, 0
19880992, 0, 0
19897640, 1, 1
19914280, 1, 0
19930904, 9, 0
19947560, 1, 0
19964208, 0, 1
19980844, 0, 0
19997472, 1, 0
20014116, 4, 1
20030760, 0, 0
20047404, 1, 0
20064032, 1, 0
20080676, 0, 0
20097320, 0, 1
20113960, 0, 1
20130592, 1, 0
20147228, 0, 0
20163884, 1, 0
20180524, 0, 0
20197156, 0, 0
20213804, 1, 0
20230448, 36, 0
20248116, 64, 4
20265792, 16, 4
20283472, 0, 0
20300124, 1, 0
20316756, 0, 0
20333396, 4, 0
20350032, 1, 0
20366672, 4, 0
20383316, 0, 0
20399960, 100, 1
20418676, 361, 9
20437404, 100, 16
20457156, 0, 0
20473792, 1, 1
20490444, 9, 0
20507072, 64, 0
20524756, 25, 1
20542416, 0, 1
20559072, 0, 0
20575712, 0, 0
20592352, 0, 0
20608988, 4, 0
20625636, 4, 1
20642272, 1, 1
20658916, 1, 1
20675548, 4, 0
20692196, 0, 1
20708836, 4, 0
20725460, 0, 0
20742100, 4, 1
20758756, 1, 0
20775392, 0, 0
20792036, 4, 0
20808668, 25, 1
20826356, 25, 4
20844032, 0, 0
20860672, 1, 1
20877316, 1, 1
20893960, 16, 0
20911644, 9, 0
20928276, 0, 0
20944920, 0, 0
20961548, 0, 0
20978192, 0, 0
20994840, 9, 1
21011476, 16, 4
21029148, 0, 0
21045804, 1, 1
21062436, 0, 4
21079084, 1, 1
21095708, 0, 0
21112364, 1, 1
21128992, 1, 0
21145644, 1, 0
21162284, 1, 0
21178908, 0, 0
21195552, 1, 0
21212196, 0, 0
21228836, 9, 1
21245480, 9, 0
21262116, 0, 0
21278760, 1, 0
21295400, 1, 0
21312036, 1, 1
21328664, 16, 0
21346356, 64, 1
21364032, 9, 0
21380664, 0, 0
21397312, 9, 0
21413964, 25, 1
21431644, 1, 4
21448264, 16, 0
21465956, 9, 0
21482592, 0, 1
21499236, 0, 1
21515872, 9, 0
21532516, 25, 4
21550192, 4, 4
21566828, 0, 0
21583464, 0, 0
21600108, 1, 0
21616760, 4, 0
21633404, 0, 0
21650036, 1, 0
21666676, 1, 0
21683328, 1, 1
21699948, 0, 1
21716588, 0, 1
21733228, 4, 4
21749880, 9, 1
21766520, 1, 0
21783144, 9, 0
21799792, 1, 0
21816428, 1, 0
21833076, 4, 1
21849712, 0, 0
21866356, 1, 1
21882992, 25, 0
21900672, 1, 1
21917312, 0, 1
21933948, 0, 1
21950596, 0, 4
21967236, 0, 0
21983864, 0, 0
22000516, 0, 0
22017148, 0, 0
22033796, 0, 4
22050428, 0, 9
22067076, 0, 0
22083724, 1, 1
22100352, 0, 0
22116980, 0, 0
22133632, 1, 0
22150284, 1, 0
22166928, 0, 0
22183552, 1, 0
22200192, 9, 0
22216844, 9, 0
22233484, 1, 4
22250116, 4, 1
22266756, 4, 0
22283396, 0, 0
22300040, 1, 1
22316672, 0, 0
22333312, 1, 0
22349964, 9, 1
22366604, 1, 0
22383224, 0, 0
22399872, 1, 0
22416524, 1, 1
22433152, 4, 0
22449796, 1, 0
22466436, 25, 0
22484128, 49, 0
22501800, 4, 0
22518428, 0, 1
22535068, 16, 0
22552764, 36, 4
22570436, 9, 4
22587072, 4, 0
22603708, 1, 4
22620364, 0, 1
22636992, 1, 0
22653632, 1, 0
22670268, 0, 0
22686920, 0, 1
22703556, 0, 0
22720192, 0, 0
22736824, 0, 0
22753472, 0, 1
22770120, 4, 0
22786756, 1, 0
22803396, 0, 0
22820044, 4, 0
22836672, 1, 0
22853312, 0, 0
22869948, 0, 0
22886592, 0, 0
22903220, 0, 0
22919864, 0, 1
22936496, 0, 1
22953152, 0, 0
22969784, 0, 0
22986436, 0, 0
23003068, 0, 0
23019724, 1, 0
23036352, 1, 0
23052988, 0, 0
23069628, 1, 0
23086276, 0, 0
23102912, 4, 0
23119556, 1, 0
23136188, 4, 0
23152832, 0, 4
23169476, 4, 1
23186112, 1, 0
23202744, 1, 1
23219396, 9, 0
23236036, 4, 0
23252664, 0, 0
23269300, 4, 1
23285964, 1, 1
23302588, 1, 0
23319232, 4, 0
23335864, 1, 0
23352516, 1, 0
23369156, 4, 1
23385788, 0, 1
23402428, 4, 0
23419076, 4, 0
23435716, 1, 0
23452344, 0, 0
23468980, 1, 1
23485632, 0, 0
23502276, 0, 0
23518904, 16, 4
23536588, 1, 1
23553236, 9, 1
23569876, 9, 1
23586512, 0, 0
23603148, 1, 0
23619792, 0, 0
23636424, 0, 1
23653064, 0, 0
23669700, 0, 0
23686364, 0, 0
23702992, 0, 0
23719632, 0, 0
23736256, 0, 0
23752920, 9, 0
23769552, 4, 0
23786192, 0, 0
23802816, 0, 0
23819468, 0, 0
23836104, 0, 0
23852756, 1, 1
23869388, 0, 0
23886044, 9, 0
23902668, 1, 0
23919304, 0, 0
23935936, 0, 0
23952592, 1, 0
23969236, 1, 0
23985876, 1, 0
24002512, 4, 1
24019160, 1, 0
24035792, 1, 0
24052428, 0, 1
24069068, 0, 0
24085724, 4, 1
24102348, 4, 1
24118996, 1, 0
24135628, 0, 0
24152280, 0, 0
24168916, 9, 4
24185552, 1, 16
24203232, 1, 1
24219868, 0, 0
24236504, 0, 0
24253148, 0, 0
24269780, 0, 1
24286436, 1, 1
24303072, 0, 0
24319716, 1, 0
24336336, 0, 0
24353004, 1, 1
24369632, 1, 1
24386272, 0, 0
24402896, 1, 0
24419556, 4, 0
24436196, 4, 0
24452832, 4, 0
24469468, 1, 0
24486112, 1, 0
24502752, 0, 0
24519396, 0, 1
24536024, 4, 0
24552676, 0, 1
24569316, 0, 0
24585952, 9, 0
24602584, 1, 0
24619236, 1, 0
24635876, 4, 0
24652516, 0, 1
24669144, 1, 1
24685804, 9, 0
24702436, 4, 0
24719076, 1, 0
24735712, 4, 1
24752348, 0, 0
24768984, 9, 0
24785636, 36, 0
24803312, 9, 1
24819964, 1, 1
24836596, 1, 1
24853232, 0, 1
24869868, 0, 1
24886512, 0, 0
24903144, 0, 0
24919792, 4, 0
24936424, 16, 1
24954120, 9, 1
24970740, 1, 0
24987392, 4, 0
25004024, 0, 0
25020676, 0, 0
25037316, 1, 1
25053956, 4, 1
25070588, 1, 1
25087232, 0, 0
25103868, 0, 1
25120516, 0, 0
25137148, 0, 0
25153796, 0, 1
25170436, 1, 1
25187076, 4, 1
25203708, 0, 0
25220364, 1, 0
25236996, 0, 0
25253636, 0, 1
25270268, 4, 0
25286920, 1, 0
25303556, 0, 0
25320196, 25, 0
25337880, 81, 1
25355560, 9, 1
25372196, 0, 0
25388832, 1, 0
25405480, 4, 0
25422112, 0, 0
25438760, 4, 0
25455392, 4, 0
25472040, 1, 0
25488672, 1, 0
25505320, 4, 0
25521956, 0, 0
25538604, 0, 0
25555236, 0, 0
25571880, 0, 0
25588516, 1, 1
25605152, 4, 0
25621796, 0, 0
25638440, 1, 0
25655060, 0, 0
25671712, 0, 0
25688356, 4, 0
25705004, 9, 0
25721632, 1, 0
25738272, 1, 0
25754912, 9, 0
25771564, 1, 0
25788192, 0, 0
25804840, 1, 0
25821484, 1, 0
25838120, 0, 0
25854748, 9, 1
25871396, 1, 1
25888032, 1, 0
25904680, 4, 1
25921316, 0, 1
25937952, 0, 0
25954592, 0, 0
25971232, 0, 0
25987872, 0, 1
26004512, 0, 0
26021160, 0, 0
26037800, 1, 0
26054420, 9, 0
26071072, 4, 0
26087712, 4, 0
26104364, 1, 0
26120996, 1, 0
26137636, 0, 0
26154276, 9, 0
26170916, 1, 1
26187548, 0, 1
26204204, 1, 0
26220844, 1, 0
26237484, 4, 0
26254116, 36, 0
26271804, 9, 0
26288432, 1, 0
26305076, 1, 4
26321712, 4, 4
26338356, 25, 0
26356032, 25, 0
26373716, 9, 1
26390344, 0, 0
26407004, 4, 0
26423632, 9, 0
26440276, 1, 0
26456912, 9, 0
26473556, 16, 1
26491232, 4, 0
26507868, 4, 0
26524512, 1, 0
26541160, 1, 0
26557804, 1, 0
26574436, 0, 0
26591064, 0, 0
26607720, 1, 0
26624360, 1, 0
26640992, 1, 0
26657624, 0, 0
26674272, 0, 0
26690912, 0, 0
26707552, 1, 0
26724192, 4, 0
26740836, 4, 0
26757476, 0, 0
26774108, 0, 1
26790756, 1, 1
26807392, 4, 0
26824040, 1, 0
26840664, 0, 0
26857312, 0, 0
26873952, 0, 0
26890592, 1, 0
26907224, 1, 0
26923864, 0, 0
26940508, 0, 0
26957156, 1, 0
26973792, 0, 0
26990440, 0, 0
27007072, 0, 0
27023724, 1, 4
27040348, 0, 4
27056984, 1, 0
27073644, 1, 0
27090284, 1, 0
27106908, 0, 0
27123556, 4, 0
27140196, 1, 0
27156848, 1, 0
27173472, 4, 0
27190116, 9, 0
27206752, 0, 0
27223400, 1, 0
27240024, 1, 0
27256668, 4, 0
27273312, 0, 0
27289952, 0, 1
27306588, 4, 1
27323236, 4, 0
27339888, 1, 1
27356524, 1, 0
27373152, 4, 4
27389796, 4, 1
27406436, 0, 1
27423072, 0, 0
27439700, 0, 0
27456344, 4, 0
27473000, 25, 1
27490672, 9, 1
27507304, 0, 0
27523944, 0, 1
27540608, 4, 1
27557240, 1, 0
27573864, 0, 0
27590512, 1, 1
27607152, 1, 0
27623792, 0, 0
27640424, 1, 0
27657076, 4, 0
27673724, 0, 0
27690348, 0, 0
27706980, 0, 0
27723624, 4, 0
27740272, 0, 0
27756924, 0, 0
27773560, 0, 0
27790192, 1, 0
27806828, 1, 0
27823472, 0, 0
27840112, 1, 0
27856748, 4, 1
27873400, 0, 1
27890036, 0, 0
27906664, 0, 0
27923312, 0, 0
27939948, 0, 0
27956592, 1, 0
27973232, 1, 0
27989872, 1, 0
28006512, 0, 0
28023160, 4, 0
28039796, 36, 1
28057476, 4, 1
28074120, 4, 0
28090756, 9, 0
28107392, 1, 0
28124024, 0, 0
28140672, 0, 0
28157312, 1, 1
28173956, 1, 1
28190592, 1, 1
28207232, 0, 0
28223868, 1, 0
28240516, 4, 1
28257156, 0, 0
28273796, 0, 0
28290432, 0, 0
28307076, 1, 0
28323716, 4, 0
28340360, 4, 1
28357004, 4, 0
28373624, 0, 0
28390276, 16, 0
28407956, 9, 0
28424592, 0, 0
28441232, 0, 0
28457880, 4, 1
28474516, 25, 1
28492208, 36, 1
28509876, 1, 1
28526508, 0, 0
28543152, 0, 0
28559796, 1, 1
28576424, 0, 0
28593064, 1, 0
28609720, 4, 0
28626356, 1, 1
28642996, 0, 1
28659624, 1, 0
28676272, 0, 0
28692912, 1, 0
28709552, 4, 0
28726180, 0, 0
28742844, 4, 0
28759468, 16, 1
28777156, 4, 0
28793788, 4, 0
28810432, 4, 0
28827060, 1, 0
28843712, 0, 0
28860348, 0, 1
28876996, 0, 1
28893632, 0, 0
28910272, 0, 0
28926904, 0, 0
28943552, 0, 0
28960188, 0, 0
28976836, 0, 0
28993468, 0, 1
29010120, 1, 0
29026740, 0, 0
29043392, 1, 0
29060028, 4, 1
29076676, 16, 4
29094352, 9, 0
29110984, 0, 0
29127628, 0, 4
29144280, 1, 0
29160912, 1, 0
29177544, 0, 0
29194188, 0, 0
29210832, 0, 0
29227476, 1, 0
29244112, 0, 0
29260740, 0, 0
29277400, 4, 0
29294036, 1, 0
29310672, 4, 0
29327308, 16, 0
29345000, 1, 1
29361624, 0, 0
29378272, 1, 0
29394900, 0, 0
29411560, 4, 0
29428192, 9, 0
29444820, 4, 0
29461472, 1, 0
29478112, 0, 1
29494748, 0, 1
29511396, 1, 0
29528024, 0, 0
29544664, 0, 0
29561300, 0, 0
29577940, 0, 0
29594580, 0, 0
29611248, 0, 0
29627876, 0, 0
29644512, 1, 0
29661144, 0, 0
29677792, 0, 0
29694420, 0, 0
29711076, 1, 0
29727712, 1, 0
29744352, 0, 0
29760988, 0, 0
29777636, 4, 0
29794268, 1, 0
29810924, 1, 0
29827552, 1, 0
29844184, 0, 0
29860816, 0, 0
29877468, 0, 0
29894108, 0, 0
29910760, 0, 0
29927380, 1, 0
29944028, 0, 0
29960672, 1, 1
29977312, 1, 1
29993948, 1, 0
30010588, 1, 0
30027224, 0, 0
30043872, 0, 1
30060496, 0, 0
30077156, 1, 0
30093792, 1, 0
30110436, 1, 0
30127064, 1, 0
30143712, 0, 0
30160352, 1, 0
30176992, 9, 0
30193632, 4, 0
30210276, 0, 0
30226916, 0, 0
30243556, 0, 1
30260188, 0, 0
30276832, 0, 1
30293468, 0, 1
30310116, 4, 0
30326748, 16, 0
30344436, 0, 1
30361064, 0, 0
30377716, 0, 0
30394352, 1, 0
30410992, 0, 0
30427640, 1, 1
30444272, 1, 0
30460908, 0, 0
30477568, 1, 1
30494196, 0, 0
30510836, 0, 0
30527464, 0, 0
30544108, 4, 0
30560744, 0, 0
30577396, 1, 0
30594020, 0, 0
30610676, 0, 0
30627304, 0, 0
30643948, 1, 0
30660576, 0, 0
30677232, 4, 0
30693876, 16, 1
30711552, 1, 0
30728184, 0, 1
30744832, 1, 0
30761472, 1, 0
30778116, 0, 0
30794744, 0, 0
30811392, 0, 0
30828032, 1, 0
30844676, 1, 0
30861304, 1, 0
30877952, 1, 0
30894588, 1, 0
30911232, 0, 0
30927864, 1, 0
30944512, 4, 0
30961140, 1, 0
30977784, 0, 0
30994416, 0, 0
31011084, 1, 0
31027708, 0, 1
31044352, 1, 1
31060984, 1, 0
31077636, 1, 0
31094268, 4, 0
31110908, 0, 0
31127544, 1, 0
31144196, 1, 1
31160824, 0, 0
31177464, 4, 0
31194100, 16, 0
31211792, 4, 0
31228444, 0, 0
31245076, 1, 0
31261716, 0, 1
31278356, 4, 0
31295004, 4, 0
31311640, 0, 1
31328276, 0, 1
31344916, 4, 1
31361564, 4, 1
31378184, 4, 1
31394836, 1, 4
31411484, 1, 1
31428120, 0, 0
31444748, 1, 0
31461388, 0, 0
31478036, 1, 0
31494676, 4, 0
31511316, 0, 0
31527956, 0, 0
31544596, 0, 0
31561228, 0, 0
31577864, 0, 0
31594512, 0, 0
31611152, 0, 0
31627804, 0, 1
31644432, 0, 1
31661072, 0, 0
31677712, 0, 0
31694364, 1, 0
31710996, 1, 0
31727632, 0, 0
31744280, 4, 0
31760924, 25, 1
31778596, 36, 4
31796276, 0, 1
31812912, 4, 0
31829552, 1, 0
31846196, 64, 1
31863888, 100, 4
31882604, 16, 1
31900272, 0, 1
31916916, 1, 1
31933548, 1, 0
31950208, 36, 1
31967876, 169, 4
31986588, 144, 1
32005316, 16, 1
32022988, 289, 4
32041716, 64, 16
32060444, 1, 0
32077072, 36, 0
32094772, 1, 0
32111396, 81, 25
32130112, 0, 16
32147796, 49, 1
32165468, 4, 0
32182116, 9, 9
32198760, 1, 0
32215396, 16, 0
32233076, 9, 0
32249716, 4, 0
32266368, 16, 1
32284040, 144, 9
32302748, 81, 9
32320428, 0, 4
32337084, 1, 0
32353712, 25, 0
32371388, 64, 1
32389064, 16, 0
32406760, 0, 1
32423388, 16, 0
32441072, 0, 1
32457720, 9, 0
32474368, 1, 0
32490992, 16, 1
32508668, 16, 1
32526360, 1, 0
32542996, 121, 1
32561708, 144, 16
32581476, 36, 1
32599164, 0, 0
32615792, 25, 0
32633464, 0, 0
32650108, 36, 0
32667796, 9, 1
32684440, 49, 1
32702116, 81, 1
32719788, 25, 0
32737472, 16, 0
32755156, 16, 0
32772828, 25, 1
32790500, 25, 0
32808196, 25, 9
32825880, 4, 0
32842504, 36, 4
32860192, 4, 0
32876844, 1, 0
32893484, 9, 1
32910120, 36, 9
32927796, 1, 1
32944432, 0, 0
32961072, 4, 0
32977716, 16, 1
32995388, 1, 0
33012036, 1, 1
33028676, 1, 1
33045300, 0, 0
33061956, 0, 1
33078592, 16, 0
33096272, 9, 0
33112904, 9, 0
33129556, 25, 0
33147236, 1, 0
33163876, 16, 0
33181556, 64, 1
33199240, 1, 0
33215872, 1, 1
33232512, 36, 1
33250200, 81, 4
33267876, 16, 1
33285556, 25, 1
33303232, 64, 1
33320912, 100, 9
33339636, 36, 4
33357316, 1, 0
33373944, 0, 0
33390580, 16, 0
33408276, 25, 0
33425952, 4, 1
33442592, 16, 0
33460280, 49, 0
33477956, 49, 1
33495636, 36, 1
33513316, 9, 0
33529960, 100, 1
33548680, 25, 1
33566348, 0, 0
33582984, 0, 0
33599632, 1, 0
33616284, 1, 0
33632912, 0, 0
33649552, 0, 0
33666204, 1, 0
33682832, 0, 0
33699472, 4, 1
33716112, 1, 0
33732752, 4, 0
33749396, 0, 1
33766028, 4, 1
33782672, 25, 0
33800352, 144, 4
33819068, 36, 1
33836744, 0, 0
33853392, 4, 0
33870036, 100, 1
33888744, 64, 4
33906432, 16, 1
33924112, 9, 0
33940764, 25, 0
33958444, 16, 0
33976112, 0, 0
33992752, 0, 0
34009396, 4, 0
34026040, 9, 4
34042676, 0, 0
34059316, 49, 1
34076996, 49, 1
34094672, 9, 0
34111312, 1, 0
34127960, 1, 0
34144604, 0, 0
34161232, 0, 4
34177872, 1, 1
34194512, 1, 0
34211156, 0, 1
34227784, 1, 0
34244428, 1, 1
34261080, 0, 1
34277720, 0, 0
34294352, 1, 1
34310996, 0, 0
34327636, 0, 0
34344276, 0, 1
34360912, 0, 1
34377548, 0, 0
34394192, 9, 0
34410832, 25, 0
34428516, 9, 0
34445152, 0, 0
34461792, 0, 0
34478436, 0, 1
34495076, 16, 1
34512744, 16, 4
34530444, 9, 0
34547072, 1, 0
34563716, 9, 1
34580356, 4, 1
34597000, 1, 0
34613632, 4, 1
34630268, 4, 4
34646916, 4, 0
34663564, 4, 0
34680192, 0, 0
34696836, 1, 0
34713468, 0, 0
34730116, 1, 0
34746756, 16, 0
34764436, 4, 0
34781080, 0, 0
34797716, 0, 0
34814352, 0, 0
34830992, 0, 0
34847636, 9, 1
34864276, 4, 0
34880924, 1, 0
34897552, 36, 0
34915232, 16, 1
34932916, 1, 1
34949552, 0, 0
34966192, 0, 0
34982828, 1, 0
34999472, 0, 1
35016116, 1, 0
35032752, 0, 0
35049384, 4, 0
35066044, 9, 4
35082680, 1, 1
35099312, 9, 0
35115948, 49, 0
35133644, 16, 1
35151312, 0, 0
35167956, 16, 0
35185632, 9, 0
35202288, 0, 0
35218916, 4, 0
35235544, 9, 0
35252188, 9, 1
35268844, 16, 1
35286508, 9, 1
35303156, 1, 0
35319784, 25, 0
35337480, 16, 0
35355164, 9, 4
35371796, 1, 9
35388436, 0, 1
35405080, 9, 0
35421720, 49, 1
35439388, 64, 4
35457088, 196, 9
35475800, 49, 4
35493484, 1, 0
35510116, 4, 0
35526756, 25, 4
35544436, 16, 1
35562108, 36, 4
35579796, 64, 9
35597476, 4, 4
35614112, 16, 0
35631784, 16, 16
35650512, 1, 16
35668204, 1, 4
35684824, 0, 0
35701468, 1, 0
35718112, 4, 0
35734756, 9, 0
35751384, 0, 0
35768036, 1, 4
35784672, 4, 9
35801312, 9, 1
35817952, 1, 4
35834584, 0, 9
35851216, 0, 4
35867880, 4, 0
35884516, 64, 1
35902192, 81, 1
35919860, 81, 1
35937564, 36, 0
35955240, 0, 0
35971864, 4, 0
35988516, 1, 0
36005164, 9, 1
36021796, 9, 9
36038428, 0, 4
36055080, 1, 0
36071712, 0, 0
36088364, 9, 0
36104984, 100, 0
36123720, 49, 1
36141396, 1, 0
36158032, 25, 0
36175716, 49, 4
36193392, 16, 1
36211076, 16, 1
36228756, 1, 0
36245396, 4, 1
36262036, 9, 0
36278676, 4, 0
36295312, 1, 0
36311948, 36, 0
36329636, 4, 0
36346280, 1, 0
36362908, 0, 1
36379548, 9, 0
36396196, 36, 9
36413876, 36, 4
36431560, 0, 0
36448180, 0, 0
36464848, 1, 0
36481476, 0, 0
36498116, 0, 0
36514740, 9, 0
36531404, 1, 0
36548032, 1, 0
36564676, 0, 0
36581304, 1, 0
36597960, 1, 0
36614580, 0, 0
36631224, 0, 0
36647860, 1, 1
36664516, 0, 1
36681152, 0, 0
36697796, 1, 1
36714432, 9, 1
36731076, 9, 1
36747708, 0, 0
36764352, 9, 0
36780984, 9, 0
36797632, 1, 0
36814276, 16, 0
36831944, 9, 0
36848584, 0, 1
36865244, 1, 1
36881864, 25, 0
36899556, 1, 1
36916188, 0, 0
36932832, 0, 0
36949472, 0, 0
36966116, 1, 1
36982748, 0, 4
36999400, 1, 0
37016024, 9, 0
37032664, 0, 0
37049308, 0, 1
37065952, 0, 0
37082596, 4, 0
37099232, 1, 0
37115864, 0, 0
37132528, 0, 0
37149152, 0, 0
37165784, 1, 0
37182420, 1, 0
37199072, 0, 0
37215712, 1, 0
37232344, 1, 0
37248980, 0, 0
37265640, 4, 0
37282260, 4, 0
37298912, 1, 0
37315552, 16, 4
37333236, 4, 1
37349864, 0, 0
37366512, 64, 1
37384180, 169, 9
37402916, 25, 4
37420600, 16, 1
37438276, 16, 4
37455956, 100, 4
37474684, 169, 1
37493392, 0, 4
37510032, 25, 0
37527708, 1, 0
37544352, 0, 0
37560992, 4, 0
37577632, 16, 1
37595316, 0, 0
37611952, 9, 0
37628592, 16, 1
37646272, 9, 1
37662920, 0, 1
37679556, 1, 0
37696196, 1, 0
37712824, 0, 0
37729472, 4, 0
37746116, 25, 1
37763788, 0, 0
37780432, 4, 0
37797084, 9, 0
37813716, 4, 0
37830340, 0, 0
37846988, 1, 0
37863648, 36, 1
37881316, 9, 0
37897948, 1, 0
37914592, 1, 0
37931232, 4, 0
37947868, 0, 0
37964508, 4, 0
37981144, 16, 1
37998840, 0, 1
38015472, 4, 0
38032112, 36, 1
38049788, 16, 4
38067476, 0, 1
38084124, 1, 0
38100756, 4, 0
38117404, 4, 1
38134044, 1, 0
38150688, 64, 1
38168360, 36, 4
38186040, 1, 0
38202672, 1, 0
38219308, 4, 1
38235944, 9, 0
38252604, 4, 0
38269232, 0, 0
38285872, 1, 0
38302508, 0, 1
38319152, 4, 4
38335792, 0, 0
38352428, 0, 1
38369064, 0, 1
38385708, 0, 0
38402352, 0, 0
38418996, 9, 1
38435628, 16, 1
38453316, 4, 1
38469956, 0, 0
38486596, 25, 0
38504276, 16, 1
38521952, 4, 0
38538596, 0, 1
38555228, 0, 1
38571876, 25, 0
38589564, 4, 1
38606200, 1, 0
38622832, 4, 1
38639468, 0, 1
38656116, 0, 1
38672760, 1, 1
38689384, 0, 0
38706032, 0, 0
38722684, 4, 0
38739320, 1, 0
38755956, 0, 0
38772592, 1, 0
38789232, 16, 0
38806912, 4, 1
38823556, 0, 0
38840196, 0, 1
38856836, 0, 0
38873472, 0, 0
38890112, 0, 0
38906756, 1, 1
38923416, 1, 1
38940036, 100, 1
38958748, 36, 4
38976420, 0, 0
38993072, 49, 0
39010752, 121, 9
39029472, 9, 0
39046096, 0, 0
39062756, 4, 1
39079396, 16, 1
39097064, 0, 0
39113696, 16, 0
39131404, 49, 0
39149076, 49, 4
39166748, 4, 0
39183400, 1, 0
39200040, 4, 0
39216680, 4, 0
39233308, 4, 0
39249952, 16, 0
39267640, 4, 0
39284264, 0, 0
39300908, 0, 0
39317560, 0, 1
39334196, 9, 1
39350828, 49, 0
39368516, 25, 1
39386200, 1, 0
39402832, 0, 0
39419476, 1, 0
39436116, 4, 0
39452764, 36, 0
39470440, 100, 4
39489152, 1, 0
39505792, 1, 1
39522432, 1, 0
39539072, 0, 0
39555716, 1, 0
39572360, 4, 1
39588996, 64, 9
39606672, 25, 1
39624356, 1, 0
39640988, 1, 0
39657632, 0, 0
39674284, 4, 1
39690916, 9, 1
39707552, 1, 0
39724200, 0, 0
39740840, 1, 0
39757464, 1, 0
39774108, 4, 0
39790752, 0, 0
39807404, 4, 0
39824032, 0, 0
39840660, 4, 0
39857316, 0, 0
39873956, 0, 0
39890596, 16, 1
39908272, 81, 4
39925964, 25, 4
39943636, 0, 0
39960272, 9, 0
39976908, 36, 0
39994596, 25, 1
40012268, 1, 0
40028912, 1, 1
40045544, 1, 0
40062204, 1, 1
40078824, 0, 0
40095468, 0, 0
40112104, 0, 1
40128756, 0, 0
40145392, 4, 0
40162036, 1, 1
40178668, 1, 1
40195320, 9, 0
40211948, 9, 0
40228584, 0, 0
40245216, 0, 0
40261872, 0, 0
40278508, 0, 0
40295156, 4, 0
40311792, 9, 0
40328440, 4, 0
40345064, 0, 0
40361712, 1, 0
40378352, 1, 0
40394992, 4, 0
40411628, 9, 0
40428268, 4, 0
40444896, 4, 1
40461552, 0, 0
40478196, 4, 0
40494836, 0, 0
40511460, 0, 0
40528120, 4, 1
40544760, 1, 4
40561396, 0, 0
40578024, 16, 0
40595720, 25, 1
40613404, 1, 1
40630024, 16, 0
40647720, 49, 0
40665400, 9, 0
40682036, 0, 0
40698676, 4, 1
40715316, 4, 1
40731952, 9, 1
40748588, 36, 1
40766268, 9, 4
40782920, 4, 0
40799560, 1, 1
40816188, 0, 0
40832824, 0, 0
40849480, 0, 1
40866112, 0, 0
40882756, 1, 0
40899392, 0, 0
40916032, 0, 0
40932676, 0, 0
40949312, 9, 0
40965948, 36, 0
40983636, 4, 0
41000280, 0, 1
41016916, 4, 0
41033548, 1, 0
41050188, 0, 0
41066832, 0, 0
41083472, 0, 0
41100112, 1, 0
41116760, 4, 1
41133400, 0, 1
41150032, 1, 0
41166676, 1, 0
41183320, 1, 0
41199948, 1, 0
41216596, 9, 0
41233232, 16, 0
41250912, 4, 0
41267560, 1, 0
41284196, 9, 0
41300832, 1, 0
41317472, 0, 0
41334112, 9, 0
41350752, 9, 0
41367396, 0, 1
41384032, 0, 0
41400668, 0, 0
41417312, 1, 0
41433952, 1, 0
41450592, 1, 0
41467232, 0, 0
41483868, 0, 0
41500512, 0, 0
41517152, 0, 0
41533796, 0, 0
41550432, 1, 1
41567076, 4, 1
41583712, 49, 0
41601392, 25, 0
41619084, 0, 0
41635720, 16, 1
41653404, 1, 1
41670032, 0, 0
41686668, 0, 1
41703312, 9, 0
41719960, 0, 0
41736592, 1, 0
41753232, 1, 0
41769876, 9, 0
41786520, 1, 0
41803164, 1, 1
41819796, 0, 1
41836432, 25, 0
41854116, 81, 1
41871796, 49, 4
41889472, 16, 0
41907148, 1, 0
41923804, 1, 0
41940436, 0, 0
41957088, 1, 4
41973708, 36, 16
41992436, 25, 0
42010104, 0, 0
42026756, 0, 1
42043416, 1, 1
42060044, 49, 16
42078768, 81, 9
42096436, 64, 4
42114124, 256, 9
42132848, 0, 4
42149472, 144, 81
42169236, 4, 16
42186924, 36, 16
42205636, 25, 4
42223320, 64, 9
42240984, 625, 9
42259724, 1225, 1
42279476, 16129, 144
42302328, 19044, 196
42325180, 16129, 5625
42349152, 0, 0
42365764, 0, 0
42382424, 3364, 15376
42406320, 0, 625
42425028, 10000, 144
42447940, 4, 49
42465620, 0, 36
42483280, 0, 6561
42503036, 0, 2116
42522800, 16, 1936
42543616, 26244, 2025
42567520, 0, 1681
42587304, 784, 3844
42609140, 4900, 441
42630988, 18769, 6084
42654892, 0, 0
42671524, 0, 0
42688180, 100, 20164
42711056, 1369, 17689
42734972, 1444, 19321
42758896, 100, 2704
42780724, 4761, 24025
42804648, 7569, 0
42824404, 10201, 1681
42848320, 1024, 0
42868088, 841, 6241
42889928, 529, 4
42908660, 3249, 121
42930504, 1089, 14884
42954416, 12100, 17161
42979384, 28224, 18225
43004320, 0, 0
43020972, 100, 27556
43043856, 841, 9025
43065684, 576, 576
43086492, 441, 12100
43109352, 3600, 10816
43133304, 5041, 1600
43156180, 961, 7056
43178020, 24336, 22801
43202972, 3844, 361
43224828, 2116, 529
43246648, 3844, 16
43267468, 441, 3844
43289296, 2704, 576
43311156, 196, 0
43329872, 1156, 3249
43352720, 16900, 5329
43376676, 32761, 361
43399548, 0, 12996
43420328, 1681, 0
43440088, 15876, 12321
43465072, 8100, 25
43485860, 0, 2116
43505604, 21904, 4225
43529552, 36, 16
43548268, 4900, 2116
43571140, 6561, 2116
43594024, 20449, 25
43615864, 6400, 4225
43638736, 0, 400
43657464, 9216, 144
43679296, 18769, 2916
43703232, 2064, 5329
43726108, 15129, 7056
43750020, 6084, 2401
43772908, 36, 49
43791624, 6084, 4
43811380, 1024, 4
43831140, 324, 14884
43854024, 2209, 32400
43877928, 19044, 6889
43901856, 9409, 196
43923700, 5329, 841
43945528, 256, 5329
43967384, 64, 6241
43988192, 676, 400
44008992, 2304, 36
44029784, 2916, 1600
44052668, 7569, 1681
44075560, 2116, 841
44097380, 361, 729
44118196, 8281, 484
44140016, 12544, 1089
44163936, 20449, 3481
44187856, 4356, 1444
44210744, 676, 10201
44233616, 1, 21025
44254416, 24964, 3025
44278344, 12100, 2809
44302272, 4356, 16
44323068, 2500, 64
44343848, 0, 784
44362580, 0, 1225
44382352, 1521, 196
44404172, 3249, 1444
44427052, 1156, 729
44448896, 7921, 3364
44471772, 29929, 2209
44495708, 32400, 4356
44519648, 9, 25
44537292, 10609, 1849
44561208, 81, 36
44579960, 169, 1600
44601752, 14400, 6889
44625708, 32433, 25921
44650660, 4160, 15876
44674596, 289, 5184
44696428, 1024, 25
44717216, 9025, 3025
44740112, 10000, 4489
44764012, 28224, 16
44785848, 0, 6724
44805632, 17924, 8100
44829536, 0, 8464
44849304, 144, 4096
44871140, 10000, 1156
44895056, 15120, 0
44915880, 0, 3969
44935612, 0, 2025
44955384, 3969, 784
44977228, 36, 400
44996996, 1521, 25
45017772, 2209, 784
45039608, 121, 6084
45061452, 1024, 3600
45084340, 6889, 961
45106204, 2209, 3025
45129072, 81, 64
45147780, 324, 1225
45169620, 21609, 9
45190420, 0, 729
45209148, 16, 9
45226816, 10404, 484
45249712, 1764, 1156
45272596, 484, 841
45293392, 10816, 225
45316276, 31329, 4
45337048, 18225, 0
45357868, 1296, 169
45379700, 4489, 64
45400516, 1024, 1
45420264, 676, 1089
45442116, 324, 1764
45463960, 0, 196
45482672, 2209, 9
45502404, 8281, 49
45523220, 64, 4096
45544020, 5041, 5776
45566888, 144, 484
45587704, 361, 36
45607456, 9, 1156
45627220, 324, 2704
45649060, 2809, 900
45670896, 1600, 2704
45693788, 0, 289
45712504, 1296, 1024
45735376, 13924, 784
45758244, 16641, 16
45780104, 1521, 3136
45802992, 28561, 1089
45826904, 0, 1369
45846660, 1764, 3364
45869544, 13225, 2601
45893464, 10201, 196
45916348, 4624, 81
45937136, 3025, 1296
45960028, 0, 441
45978744, 2585, 1024
46001620, 289, 225
46022432, 0, 144
46041140, 2601, 121
46062996, 2704, 1
46082752, 961, 169
46103532, 6724, 49
46124348, 1089, 196
46146180, 81, 100
46165936, 81, 0
46183640, 3481, 1
46203376, 4624, 400
46225232, 529, 676
46246024, 961, 1156
46267856, 8649, 7744
46290720, 29584, 1296
46314676, 961, 196
46335452, 6241, 2025
46358332, 9604, 5625
46381224, 2601, 5625
46404112, 64, 529
46423868, 4900, 16
46444664, 17161, 225
46467532, 3844, 256
46489380, 4, 196
46508112, 1024, 1444
46530984, 256, 1444
46552836, 625, 1849
46574672, 225, 1296
46596524, 13225, 4
46617300, 0, 2401
46637040, 25281, 5625
46660992, 3364, 1156
46683868, 16, 289
46703640, 0, 1
46720276, 6084, 1521
46743128, 0, 2704
46762900, 20449, 169
46785792, 225, 5041
46807624, 2116, 6084
46830504, 15129, 576
46853372, 0, 3249
46873132, 0, 4900
46892900, 9801, 196
46914728, 1764, 100
46936588, 5476, 225
46958424, 3108, 1225
46981312, 32041, 4761
47005220, 2209, 1600
47028104, 4, 1521
47047876, 2809, 5625
47070736, 0, 576
47089460, 11664, 961
47112336, 3136, 196
47134176, 4489, 2500
47157056, 49, 441
47176824, 256, 1
47195524, 1225, 1600
47218408, 4761, 4225
47241308, 10201, 64
47263156, 484, 484
47283932, 49, 961
47303708, 25, 3249
47324512, 1444, 625
47346332, 256, 1225
47368180, 9409, 2209
47391076, 29929, 9
47411852, 22201, 0
47432648, 784, 64
47452432, 729, 1
47471136, 900, 484
47491940, 1369, 289
47513788, 3969, 64
47534572, 6561, 36
47555392, 784, 121
47576192, 1296, 484
47598012, 1444, 2916
47620900, 1521, 169
47642744, 169, 5041
47664588, 2025, 3136
47687452, 0, 2116
47707216, 25921, 3249
47731148, 2116, 121
47752976, 1225, 36
47773776, 1225, 256
47795604, 1225, 64
47816420, 3136, 2209
47839300, 30625, 8281
47863216, 14400, 7921
47887148, 2809, 81
47907956, 121, 16
47927712, 4761, 484
47949540, 19881, 169
47972428, 14641, 1156
47996324, 144, 196
48017136, 0, 5929
48036900, 0, 196
48055640, 1444, 196
48077476, 0, 3025
48097212, 6569, 1849
48120104, 0, 4096
48139848, 0, 6724
48159620, 29929, 1296
48183564, 169, 64
48203300, 18225, 16
48225128, 1764, 49
48245952, 1681, 36
48266736, 4761, 36
48287548, 8100, 0
48307324, 6724, 1
48327068, 11664, 36
48348896, 32041, 1156
48372812, 15376, 2809
48396736, 30976, 3721
48420648, 32041, 2601
48444584, 4624, 676
48466408, 14161, 841
48489308, 1444, 2116
48512172, 4489, 196
48534024, 169, 256
48554816, 36, 1089
48575624, 6084, 2601
48598508, 16384, 2401
48622424, 1681, 10609
48646340, 1600, 1936
48669208, 1600, 3844
48692088, 2916, 6241
48714988, 144, 121
48735792, 49, 441
48755540, 2500, 4
48775288, 3721, 2304
48798176, 361, 3481
48820008, 1024, 1849
48842904, 3969, 256
48864716, 21609, 3025
48888648, 0, 729
48907384, 16129, 1369
48931292, 2401, 361
48953140, 25, 144
48972912, 1681, 1600
48995792, 144, 289
49016572, 10404, 961
49039456, 225, 3364
49061296, 5625, 256
49083136, 1600, 529
49104992, 5776, 1225
49127864, 24464, 25
49149708, 17985, 7744
49173608, 0, 1764
49193392, 21489, 9
49214180, 29945, 9604
49238096, 25600, 14161
49263072, 1, 2209
49282824, 5476, 400
49304664, 30276, 4
49325464, 81, 169
49345232, 11236, 3969
49369144, 7921, 3844
49392028, 841, 441
49412820, 6084, 121
49434656, 25600, 81
49456508, 289, 144
49477304, 4624, 36
49498100, 25, 81
49516820, 3136, 400
49538660, 400, 0
49557380, 729, 289
49578192, 441, 576
49598988, 1369, 1
49618736, 2116, 225
49640592, 2500, 1
49660336, 676, 1024
49682180, 49, 2809
49702992, 16, 1369
49723792, 1296, 625
49745620, 729, 576
49766416, 2116, 81
49787224, 841, 1600
49809056, 9409, 3721
49831924, 17689, 289
49854828, 576, 1444
49876672, 64, 1444
49897460, 49, 676
49917220, 289, 0
49935952, 9, 100
49954668, 484, 1936
49976512, 676, 1089
49998356, 121, 361
50019136, 1024, 400
50041004, 2116, 1089
50063860, 12769, 2601
50087780, 29929, 121
50110664, 13924, 1936
50134576, 2916, 1600
50157440, 13924, 625
50180348, 9216, 196
50202180, 9604, 484
50224012, 0, 1444
50243800, 16641, 64
50265636, 196, 36
50285384, 1024, 25
50306180, 121, 49
50325936, 144, 36
50345704, 196, 0
50364396, 2025, 25
50385228, 64, 9
50402896, 121, 100
50423712, 841, 64
50443460, 1225, 400
50465312, 900, 3025
50487140, 1, 784
50505876, 961, 225
50526652, 6084, 1024
50549540, 2809, 576
50571384, 256, 1369
50593208, 8464, 6084
50616096, 12769, 4489
50640016, 4900, 49
50660836, 9, 625
50679532, 6400, 676
50701400, 9, 576
50720104, 3249, 1600
50742980, 1089, 2401
50765860, 1, 2025
50785624, 169, 2304
50807460, 729, 289
50828248, 361, 289
50849060, 1521, 1225
50871944, 961, 16
50891704, 3249, 49
50912504, 324, 9
50931244, 3249, 4
50950992, 361, 484
50971784, 1156, 121
50993620, 0, 841
51012332, 0, 2601
51032108, 11664, 1521
51056032, 961, 1024
51077864, 4, 16
51095536, 2025, 1156
51118424, 784, 121
51139192, 20449, 1089
51163128, 0, 1600
51182900, 121, 4
51201628, 361, 625
51222412, 11449, 484
51245324, 676, 256
51266100, 22201, 4225
51290012, 26569, 441
51312900, 0, 25
51330576, 6084, 2916
51353452, 3721, 900
51375308, 1156, 1
51395052, 361, 196
51415860, 676, 49
51435640, 9, 289
51454368, 256, 676
51475148, 625, 169
51495956, 1521, 256
51517784, 13924, 324
51540656, 4689, 2209
51563512, 17161, 961
51586424, 8100, 3249
51609300, 2401, 6084
51632172, 0, 27889
51652988, 25921, 1681
51676892, 20449, 20164
51701844, 16900, 0
51722660, 8464, 361
51744508, 2809, 11664
51768436, 36, 100
51788180, 5184, 7921
51811068, 144, 4
51829772, 2209, 2916
51852668, 400, 3844
51874500, 49, 4356
51895308, 25, 676
51915072, 16, 3249
51935868, 25, 361
51955640, 0, 529
51974344, 1156, 225
51996176, 1600, 961
52018016, 4, 4096
52037800, 49, 1849
52058584, 256, 361
52079388, 16, 961
52099152, 64, 1444
52119940, 484, 7396
52141800, 1600, 2401
52164676, 0, 4
52181312, 225, 0
52200024, 324, 4
52218736, 18769, 196
52241620, 28900, 5929
52265548, 2209, 1936
52288408, 11881, 9025
52312320, 21489, 17161
52337292, 25921, 2704
52361200, 11236, 1764
52385140, 784, 2809
52406976, 3481, 9
52426732, 3025, 625
52448580, 25600, 2025
52472500, 26569, 2500
52496416, 4096, 2500
52519300, 5041, 900
52541136, 729, 289
52561948, 324, 36
52581708, 9, 256
52600416, 400, 144
52621220, 169, 361
52642036, 36, 49
52660756, 36, 400
52680516, 9, 484
52699244, 100, 49
52719000, 225, 49
52738752, 841, 0
52757456, 6400, 81
52778276, 7225, 841
52800104, 484, 1089
52821948, 484, 225
52842756, 729, 49
52862504, 1, 0
52879156, 400, 144
52899952, 121, 1024
52921788, 529, 400
52942588, 784, 9
52961312, 16, 9
52979000, 729, 36
52998756, 0, 64
53016420, 361, 16
53036192, 289, 121
53056968, 10816, 2916
53080908, 8464, 2809
53103796, 64, 25
53122520, 25, 16
53141236, 1, 81
53158924, 1, 9
53175548, 3025, 1
53195308, 2601, 169
53217156, 484, 144
53237968, 784, 16
53257708, 729, 0
53276420, 676, 256
53297232, 3249, 256
53319076, 729, 4
53337780, 1296, 9
53357536, 1849, 400
53379396, 1681, 900
53401232, 25, 1089
53422028, 0, 144
53440768, 25, 196
53460528, 0, 484
53479244, 36, 25
53497956, 81, 16
53516680, 25, 1
53534360, 49, 324
53554104, 9, 1024
53573876, 49, 625
53593632, 324, 324
53614432, 324, 144
53635228, 625, 400
53656036, 49, 289
53675796, 400, 256
53696596, 121, 81
53716368, 289, 81
53736116, 289, 49
53755860, 81, 0
53773536, 676, 0
53792284, 961, 361
53813084, 49, 121
53832832, 36, 169
53852584, 25, 1
53870264, 4, 1
53886900, 121, 9
53905640, 9, 0
53922280, 4, 0
53938916, 1, 9
53955548, 9, 36
53973232, 0, 2304
53992988, 256, 3600
54014840, 400, 1225
54036680, 49, 361
54056432, 121, 169
54077224, 100, 81
54096988, 576, 9
54115728, 2025, 1
54135476, 484, 25
54155236, 4, 49
54172924, 36, 961
54192676, 100, 1521
54214516, 121, 289
54235312, 64, 361
54255056, 196, 121
54275848, 7744, 961
54297708, 9604, 1764
54320596, 2025, 0
54340360, 25, 25
54359076, 0, 361
54377804, 0, 49
54395476, 196, 441
54416268, 144, 196
54437088, 1, 1
54453712, 49, 9
54471392, 100, 64
54491168, 0, 1
54507804, 169, 36
54527568, 16, 4
54545232, 25, 1
54562904, 256, 16
54582680, 225, 4
54601396, 16, 64
54620108, 64, 4
54637804, 0, 16
54655476, 144, 25
54675240, 196, 25
54695004, 4, 25
54712672, 441, 64
54732420, 1024, 676
54754268, 4, 961
54773004, 16, 576
54792740, 0, 676
54811472, 121, 289
54832280, 361, 196
54853072, 121, 256
54873868, 576, 9
54892596, 529, 1
54911312, 100, 625
54932116, 576, 676
54952916, 324, 441
54973712, 9, 1681
54993468, 81, 361
55013224, 676, 196
55034036, 1089, 100
55055872, 196, 4
55074608, 4, 16
55092284, 9, 324
55110988, 169, 64
55130752, 100, 2304
55152600, 4, 2209
55172348, 400, 1936
55194184, 729, 5625
55216020, 484, 5041
55237872, 0, 3844
55257628, 2916, 841
55279456, 6561, 2809
55302348, 841, 1936
55324196, 784, 1024
55346040, 729, 256
55366844, 4, 36
55384492, 529, 3721
55406332, 2601, 6084
55429224, 121, 3025
55451076, 144, 144
55471876, 100, 576
55492668, 225, 961
55513480, 49, 361
55533232, 49, 400
55552988, 1, 225
55571728, 49, 169
55591480, 16, 441
55611240, 100, 441
55632032, 400, 625
55652836, 25, 49
55671560, 144, 81
55691324, 625, 0
55710048, 100, 1
55728756, 9, 81
55746432, 0, 4
55763076, 1, 0
55779716, 0, 81
55797392, 16, 81
55816104, 9, 0
55832764, 0, 4
55849404, 121, 16
55869168, 25, 0
55886828, 36, 16
55905552, 36, 36
55924276, 4, 64
55941956, 64, 0
55959632, 36, 225
55979404, 49, 256
55999160, 100, 36
56018904, 4, 100
56037644, 0, 16
56055324, 9, 4
56071952, 9, 64
56089644, 9, 36
56107316, 289, 225
56128108, 81, 324
56147864, 9, 0
56164512, 9, 36
56182192, 16, 144
56201956, 1, 169
56220664, 144, 25
56240440, 49, 484
56260200, 16, 9
56277868, 0, 4
56294516, 16, 0
56312196, 64, 0
56329880, 144, 121
56350672, 1, 100
56369396, 729, 196
56390192, 4, 49
56407872, 1444, 225
56429724, 144, 25
56449476, 64, 441
56469240, 25, 64
56487960, 9, 121
56506680, 0, 36
56524356, 0, 16
56542040, 1, 0
56558680, 144, 25
56578440, 121, 49
56598196, 16, 1
56615872, 81, 49
56634604, 4, 9
56651232, 49, 0
56668928, 1, 9
56685544, 36, 81
56704272, 0, 64
56721964, 1, 9
56738596, 16, 81
56757316, 121, 16
56777076, 36, 36
56795792, 64, 49
56814508, 16, 0
56832200, 4, 0
56848836, 49, 0
56866524, 9, 121
56885228, 25, 36
56903956, 16, 0
56921656, 16, 1
56939324, 16, 9
56956996, 49, 81
56975720, 25, 169
56995476, 49, 36
57014184, 49, 4
57031884, 4, 36
57049548, 36, 1
57067240, 100, 25
57087000, 324, 36
57106752, 256, 121
57127552, 1, 225
57146268, 25, 100
57166048, 49, 0
57183716, 36, 16
57202440, 0, 16
57220124, 100, 49
57239868, 729, 16
57259624, 676, 81
57279392, 289, 9
57298132, 4, 225
57316832, 9, 1024
57336600, 196, 1024
57358440, 9, 289
57377156, 289, 1
57395880, 1, 64
57413548, 256, 121
57434364, 144, 9
57453084, 4, 16
57470760, 0, 9
57487404, 81, 100
57507168, 25, 4
57524840, 4, 4
57541476, 4, 0
57558116, 9, 49
57575796, 0, 1
57592436, 4, 4
57609080, 9, 169
57627800, 25, 196
57647548, 144, 4
57666280, 81, 441
57686032, 4, 484
57704764, 1, 36
57722428, 49, 4
57740108, 49, 1
57757804, 4, 36
57775484, 289, 49
57795228, 81, 4
57812900, 0, 16
57830592, 0, 64
57848276, 4, 144
57866992, 4, 16
57884680, 16, 49
57903396, 4, 64
57921072, 4, 9
57937708, 196, 4
57956432, 361, 49
57976196, 121, 0
57994916, 0, 49
58012588, 0, 4
58029248, 9, 1
58045876, 25, 81
58064584, 169, 144
58085408, 121, 400
58106204, 16, 81
58124904, 64, 400
58144672, 1, 625
58163392, 36, 289
58183152, 36, 49
58201880, 4, 4
58218524, 16, 16
58237240, 121, 0
58255952, 625, 196
58276756, 36, 0
58294440, 1, 441
58313156, 16, 81
58331872, 4, 16
58349552, 0, 9
58366204, 100, 100
58386996, 64, 121
58406756, 81, 25
58425488, 36, 9
58443156, 196, 64
58462912, 169, 1
58481632, 1, 0
58498276, 9, 1
58514916, 289, 16
58534688, 121, 9
58553396, 1, 169
58572116, 4, 4
58588756, 9, 64
58606436, 36, 9
58624128, 441, 121
58644916, 324, 289
58665712, 121, 64
58685476, 64, 16
58704212, 16, 25
58722916, 9, 0
58739556, 16, 4
58757240, 49, 49
58775960, 36, 9
58793628, 4, 144
58812340, 25, 121
58832124, 9, 81
58849792, 1, 64
58867476, 81, 1
58885160, 0, 16
58902844, 36, 225
58922596, 1, 49
58940276, 9, 36
58957956, 0, 0
58974604, 25, 4
58992276, 16, 0
59009948, 25, 4
59027640, 1, 0
59044272, 49, 144
59064032, 4, 64
59081708, 0, 36
59099396, 1, 144
59118124, 25, 196
59137876, 49, 144
59157632, 0, 16
59175320, 169, 36
59195064, 196, 784
59215868, 64, 256
59235648, 361, 0
59254364, 324, 4
59273076, 100, 676
59293880, 100, 3364
59315704, 361, 1600
59337544, 36, 100
59357320, 1, 16
59375000, 196, 16
59394748, 1681, 4
59414500, 1225, 0
59434276, 169, 9
59453000, 4, 225
59471708, 81, 100
59491492, 169, 100
59512276, 0, 144
59531000, 0, 1
59547636, 25, 9
59565324, 25, 9
59583000, 225, 4
59601716, 16, 25
59620452, 4, 9
59637084, 16, 9
59654752, 0, 4
59671404, 0, 100
59690120, 9, 0
59706768, 1, 9
59723392, 36, 144
59743160, 9, 9
59759812, 16, 9
59777480, 9, 49
59795160, 1, 9
59811800, 9, 0
59828448, 0, 9
59845072, 4, 64
59862768, 16, 9
59880428, 36, 0
59898120, 0, 4
59914760, 4, 25
59932436, 64, 0
59950112, 144, 16
59969888, 81, 49
59988592, 25, 0
60006276, 25, 0
60023964, 1, 16
60041652, 36, 4
60059316, 81, 25
60078028, 9, 16
60095716, 4, 0
60112348, 16, 121
60132116, 16, 225
60151880, 16, 100
60171644, 1, 324
60190344, 81, 1024
60211140, 256, 25
60230916, 81, 400
60250660, 25, 121
60270428, 16, 25
60289156, 16, 4
60306832, 0, 25
60324520, 4, 49
60342188, 81, 9
60359884, 225, 1
60378592, 100, 1
60397312, 16, 0
60415004, 1, 4
60431652, 4, 1
60448288, 49, 36
60466996, 25, 16
60485724, 4, 0
60502360, 49, 16
60521076, 121, 676
60541856, 49, 625
60561648, 121, 324
60582436, 625, 225
60603236, 625, 1
60621952, 361, 1
60640684, 16, 4
60658368, 25, 64
60677068, 4, 100
60695804, 4, 36
60713472, 16, 49
60732192, 1, 4
60748832, 0, 36
60766524, 1, 25
60784196, 0, 64
60801872, 25, 36
60820604, 4, 9
60837240, 64, 169
60856984, 0, 196
60875704, 64, 16
60894444, 81, 4
60912116, 0, 1
60928760, 16, 9
60946436, 0, 1
60963080, 36, 25
60981804, 169, 9
61000516, 100, 4
61019240, 16, 100
61038992, 0, 49
61056676, 4, 16
61074356, 4, 64
61092036, 25, 0
61109716, 49, 9
61127400, 25, 100
61147164, 9, 0
61163792, 25, 9
61181484, 0, 16
61199160, 49, 256
61218912, 64, 1156
61239724, 1, 49
61257400, 1, 529
61276100, 0, 484
61294836, 16, 49
61313564, 16, 16
61332268, 0, 64
61349956, 0, 0
61366584, 25, 0
61384268, 4, 0
61400912, 16, 1
61418604, 225, 121
61439396, 81, 144
61459156, 25, 0
61476828, 49, 196
61496596, 0, 196
61515312, 4, 16
61533000, 36, 1
61550684, 16, 49
61569404, 81, 100
61589152, 9, 256
61607864, 9, 64
61625552, 25, 0
61643240, 16, 1
61660924, 4, 9
61677548, 9, 49
61695240, 16, 121
61714996, 1, 16
61732668, 0, 9
61749312, 144, 9
61768036, 324, 4
61786748, 144, 1
61805476, 25, 9
61823156, 9, 0
61839800, 4, 9
61856436, 64, 49
61875148, 9, 100
61893876, 1, 0
61910512, 4, 9
61927144, 121, 0
61945876, 25, 1
61963560, 9, 0
61980208, 361, 4
61998912, 529, 256
62019720, 1, 169
62038436, 196, 121
62059224, 49, 225
62078992, 9, 36
62096676, 0, 9
62113324, 4, 9
62129956, 9, 100
62148680, 64, 169
62168436, 4, 9
62185080, 1, 16
62202748, 16, 9
62220432, 25, 25
62239152, 16, 169
62258904, 4, 529
62277624, 0, 400
62296364, 64, 9
62314036, 9, 49
62331720, 1, 0
62348352, 0, 64
62366036, 0, 100
62384752, 0, 49
62402432, 0, 64
62420112, 49, 16
62438836, 196, 144
62459624, 81, 324
62479404, 100, 324
62500196, 196, 169
62521000, 100, 4
62539700, 16, 0
62557408, 81, 361
62577156, 100, 1089
62598996, 64, 676
62618756, 784, 225
62639548, 441, 16
62659324, 36, 225
62679072, 49, 81
62697800, 16, 64
62716516, 0, 4
62733156, 4, 36
62750836, 25, 64
62769568, 64, 1
62787232, 64, 441
62807000, 900, 1089
62828844, 484, 625
62849644, 1, 169
62868352, 81, 49
62887084, 121, 4
62905796, 121, 4
62924516, 0, 1
62941156, 4, 9
62957808, 25, 9
62975468, 0, 0
62992120, 4, 1
63008748, 4, 9
63025396, 0, 4
63042032, 0, 36
63059720, 1, 4
63076340, 36, 16
63095084, 4, 16
63112756, 0, 4
63129400, 9, 25
63147080, 16, 1
63164756, 16, 16
63183480, 0, 1
63200116, 1, 4
63216764, 49, 0
63234444, 144, 81
63254188, 36, 64
63272908, 0, 0
63289552, 1, 9
63306196, 1, 169
63324908, 64, 361
63344684, 64, 1
63362364, 9, 64
63380040, 9, 1
63396676, 64, 36
63415400, 1, 36
63433084, 16, 64
63451796, 4, 1
63468424, 121, 196
63489244, 400, 144
63510036, 64, 9
63527716, 169, 1
63546436, 961, 81
63566192, 529, 484
63586996, 169, 441
63607784, 81, 121
63627556, 729, 0
63646268, 169, 0
63664996, 81, 1
63682676, 100, 4
63701400, 1, 16
63719064, 9, 4
63735708, 169, 121
63756532, 16, 9
63774196, 64, 1
63791872, 64, 4
63809552, 9, 16
63827236, 1, 100
63845952, 36, 49
63864676, 64, 144
63884432, 36, 49
63903144, 64, 0
63920836, 1, 4
63937468, 16, 1
63955152, 25, 9
63972840, 16, 81
63991564, 1, 9
64008200, 9, 144
64026920, 289, 225
64047708, 1225, 121
64069552, 961, 49
64089324, 225, 49
64109096, 1, 4
64125704, 484, 196
64146504, 441, 144
64167316, 441, 36
64187080, 100, 121
64207860, 2304, 400
64229712, 8281, 625
64251552, 1521, 324
64273380, 5184, 36
64294184, 361, 9
64312900, 12544, 1024
64336800, 7225, 900
64358652, 12996, 324
64381540, 3844, 100
64403364, 16641, 2401
64427296, 8649, 1764
64450184, 10404, 900
64473060, 144, 0
64491780, 256, 196
64512568, 2025, 1024
64535448, 2401, 4
64555212, 64, 1681
64576012, 0, 36
64593704, 7921, 529
64615532, 2401, 144
64637384, 18769, 81
64659220, 13456, 256
64682116, 1156, 4
64701868, 1024, 16
64722660, 841, 169
64743468, 729, 4
64762184, 400, 144
64782992, 16, 64
64801700, 100, 169
64822512, 3136, 0
64842268, 1764, 484
64864104, 9025, 4
64883864, 13225, 9
64904656, 12544, 121
64927552, 18496, 4
64948344, 9604, 256
64970180, 3721, 361
64992012, 81, 121
65011772, 4096, 16
65032596, 6400, 169
65054428, 225, 144
65075244, 196, 49
65094980, 36, 0
65112660, 100, 16
65132428, 2809, 1
65152192, 1444, 100
65174040, 1444, 49
65194816, 484, 256
65215628, 900, 0
65234352, 6400, 49
65255140, 25921, 625
65278016, 5184, 1024
65300900, 625, 0
65319624, 324, 121
65340432, 441, 16
65360180, 3969, 25
65380972, 2401, 81
65401772, 121, 400
65422572, 30976, 9
65443388, 0, 3025
65463140, 24464, 6561
65487060, 5625, 2025
65509932, 1600, 144
65531792, 576, 25
65551528, 841, 361
65572336, 5329, 529
65594168, 13225, 0
65614984, 26244, 1849
65638892, 7569, 1225
65661784, 2304, 1
65681556, 1296, 484
65703388, 513, 729
65724168, 26896, 1600
65748112, 4900, 0
65767848, 8649, 64
65788664, 8448, 5184
65811544, 29584, 3481
65835460, 9216, 9
65855212, 0, 196
65873936, 12100, 900
65896836, 19044, 121
65919700, 13456, 1024
65943624, 289, 121
65964432, 144, 400
65985228, 9801, 9
66004992, 3249, 256
66026840, 100, 0
66045548, 49, 144
66065316, 400, 9
66084024, 14400, 121
66106896, 9409, 1521
66129792, 1681, 81
66150596, 20164, 1444
66174504, 4225, 1444
66197396, 4489, 400
66219232, 22201, 900
66242096, 441, 625
66262896, 900, 121
66283692, 30276, 1296
66307608, 27225, 3600
66331532, 961, 1
66350268, 16129, 289
66373148, 13225, 196
66396024, 784, 1156
66417876, 841, 361
66438664, 400, 400
66459464, 961, 196
66480264, 3969, 169
66502104, 8836, 5041
66524984, 784, 1849
66546820, 961, 324
66567620, 5476, 81
66588424, 1681, 1
66608188, 324, 49
66627932, 2025, 49
66648736, 784, 81
66668488, 2025, 16
66689300, 5184, 225
66711124, 1, 784
66729856, 841, 289
66750664, 0, 256
66769376, 0, 2704
66789144, 0, 2209
66808916, 324, 4
66827620, 11236, 64
66849464, 576, 4
66868172, 1444, 36
66888996, 81, 64
66907696, 121, 144
66928492, 16, 64
66947228, 1849, 64
66968016, 1521, 25
66988824, 441, 16
67008584, 3136, 0
67028344, 441, 4
67047044, 484, 16
67066804, 225, 25
67086588, 324, 4
67105316, 16, 25
67124020, 9801, 64
67144816, 7744, 729
67166656, 1, 25
67184336, 676, 49
67204088, 25, 49
67222824, 2025, 100
67244652, 1225, 49
67265452, 16, 4
67283144, 1089, 0
67302896, 16641, 324
67325780, 26244, 1849
67349704, 1156, 529
67371540, 9604, 289
67393372, 25, 144
67413148, 2809, 225
67434984, 1156, 0
67454732, 8100, 1
67474508, 2601, 1225
67497388, 169, 0
67516100, 324, 729
67536912, 1681, 9
67556664, 2809, 4
67576424, 64, 225
67596188, 361, 4
67614900, 36, 4
67632580, 25, 16
67651304, 2500, 64
67672108, 1936, 144
67693940, 12544, 400
67716820, 7225, 1296
67739716, 361, 4
67758408, 0, 529
67777148, 8057, 8100
67800000, 22592, 6889
67823932, 0, 4489
67843692, 2209, 1936
67866560, 14884, 576
67889472, 0, 1369
67909216, 1028, 1681
67932092, 29929, 2809
67956044, 1, 256
67974736, 4225, 256
67996580, 144, 64
68016340, 1089, 81
68037148, 961, 36
68056900, 2601, 0
68076676, 16900, 25
68098500, 0, 841
68117228, 10404, 1296
68141152, 2916, 36
68161936, 4624, 196
68183784, 2401, 196
68205620, 10404, 900
68228500, 16384, 400
68251388, 2025, 25
68272204, 6400, 4
68291944, 5041, 256
68313788, 36, 81
68332496, 36, 0
68350184, 3721, 16
68370968, 1936, 324
68392824, 121, 25
68412596, 256, 1
68431308, 196, 100
68452092, 2116, 64
68472904, 5776, 169
68494744, 7396, 841
68516588, 400, 121
68537404, 49, 36
68556100, 3249, 729
68577948, 14161, 2116
68601844, 11748, 1156
68625788, 0, 2209
68645552, 324, 16
68665300, 576, 256
68686084, 9604, 256
68707940, 6889, 49
68728736, 0, 729
68747472, 729, 841
68768248, 6400, 1521
68791128, 0, 361
68809856, 0, 6561
68829624, 256, 49
68849380, 16, 196
68869148, 3025, 961
68890980, 26896, 1225
68914892, 3600, 3721
68937792, 1521, 400
68959632, 1296, 0
68979392, 13689, 3969
69003296, 21609, 324
69026180, 4, 121
69044896, 18769, 0
69065688, 400, 441
69086508, 3721, 100
69108328, 28900, 1089
69132252, 30976, 2809
69156188, 5184, 4
69175940, 17689, 1444
69199860, 784, 196
69220664, 361, 100
69241464, 11881, 100
69264320, 22500, 2304
69288252, 13924, 1936
69312176, 3136, 324
69334004, 26244, 576
69356912, 18769, 121
69379760, 0, 1849
69399528, 19881, 4096
69423464, 2500, 144
69445288, 13456, 900
69468180, 0, 8836
69487956, 0, 3721
69507712, 10201, 400
69530576, 49, 676
69550352, 1, 225
69569056, 196, 256
69589852, 49, 36
69608580, 1296, 484
69630420, 529, 1
69649144, 2209, 100
69670992, 5184, 64
69691792, 3025, 0
69711540, 729, 361
69732340, 2304, 16
69753140, 9801, 1369
69776024, 729, 400
69796808, 28224, 676
69819708, 0, 1296
69839452, 0, 1681
69859216, 0, 3600
69878988, 0, 2209
69898752, 11664, 529
69921628, 4356, 9
69941392, 2401, 256
69963208, 26244, 121
69986096, 23409, 2809
70010040, 121, 169
70030816, 3844, 529
70052656, 6241, 25
70073456, 289, 256
70094264, 529, 196
70115064, 13689, 16
70136904, 0, 841
70155616, 20736, 1681
70179536, 19321, 625
70202440, 1089, 400
70224264, 0, 144
70242980, 0, 3721
70262728, 6889, 1936
70285612, 4624, 49
70306416, 729, 81
70326172, 324, 289
70346984, 3721, 0
70366740, 2500, 121
70388584, 576, 225
70409384, 1681, 324
70431212, 14161, 121
70454096, 7744, 36
70474908, 12100, 100
70497776, 0, 2500
70517540, 20736, 2601
70541464, 3969, 576
70563296, 2304, 169
70585132, 7744, 9
70604896, 16384, 900
70627788, 15625, 676
70650652, 289, 36
70670432, 2601, 36
70691224, 3844, 16
70712028, 20736, 400
70734912, 6400, 441
70756740, 0, 49
70774416, 28900, 2209
70798348, 196, 169
70819152, 9216, 576
70840980, 7225, 81
70861764, 5476, 144
70883632, 361, 0
70902348, 961, 144
70923140, 10404, 1089
70947080, 1296, 196
70968892, 6084, 1024
70991772, 11881, 169
71014684, 10000, 729
71037540, 2401, 1681
71060416, 0, 121
71079132, 3600, 16
71099932, 1764, 36
71120732, 2209, 16
71141548, 12996, 484
71164452, 13425, 1225
71188328, 0, 2304
71208104, 25, 576
71227860, 2116, 36
71248652, 2209, 25
71269460, 400, 289
71290272, 36, 25
71308972, 2704, 144
71330828, 11025, 484
71353704, 15876, 784
71376580, 2601, 529
71398432, 1296, 9
71418172, 5329, 4
71437932, 64, 25
71456660, 225, 64
71476436, 144, 4
71495148, 484, 81
71514892, 441, 16
71534660, 900, 169
71555456, 1156, 16
71576252, 484, 36
71596008, 3844, 289
71617872, 26244, 900
71640740, 6241, 961
71662568, 0, 361
71681300, 22500, 2916
71705216, 11025, 16
71727036, 15129, 1521
71750976, 0, 144
71769712, 0, 3249
71789460, 8464, 3600
71812332, 8836, 289
71834188, 27489, 2601
71858092, 0, 3600
71877852, 17424, 3249
71901776, 4761, 1024
71924648, 11881, 289
71947552, 1024, 169
71969396, 9, 9
71986012, 17424, 289
72008900, 3364, 1369
72031784, 100, 4
72050504, 1089, 9
72070268, 196, 0
72088988, 17956, 1156
72112916, 0, 4900
72132664, 0, 2916
72152428, 0, 2116
72172180, 12544, 4096
72196104, 9409, 4
72215864, 3721, 1764
72238768, 49, 169
72258512, 64, 1
72276188, 256, 961
72296984, 289, 9
72315720, 16, 49
72334452, 196, 169
72355240, 0, 9
72371872, 729, 225
72392660, 16, 36
72411388, 484, 81
72431132, 2025, 100
72452968, 3249, 324
72474828, 3721, 9
72494580, 361, 81
72514348, 289, 64
72534116, 1, 196
72552824, 36, 0
72570520, 1089, 9
72590260, 256, 64
72610040, 4, 1
72626668, 729, 25
72646428, 625, 289
72667236, 36, 400
72687000, 324, 4
72705708, 529, 36
72725464, 256, 25
72745236, 2209, 81
72766032, 4, 25
72783712, 841, 4
72802448, 289, 0
72821156, 625, 0
72839864, 9801, 256
72861684, 16900, 961
72884596, 1089, 324
72906440, 1089, 81
72927220, 2601, 144
72949084, 2916, 25
72969880, 1156, 144
72991708, 64, 49
73010444, 225, 25
73030200, 400, 64
73049960, 196, 25
73069732, 81, 4
73087396, 784, 4
73106108, 1024, 121
73127956, 1296, 36
73148756, 7396, 729
73170596, 5184, 225
73192420, 361, 121
73213236, 49, 121
73232984, 324, 16
73252752, 64, 0
73270440, 9, 0
73287080, 361, 16
73306828, 841, 0
73325540, 1296, 36
73346352, 2304, 81
73367160, 1089, 121
73388988, 144, 169
73409796, 16, 9
73427476, 1225, 1
73447216, 5929, 400
73469076, 5329, 961
73490904, 784, 196
73511712, 49, 0
73529408, 121, 1
73548108, 3721, 9
73567868, 10404, 324
73590740, 1296, 729
73612592, 4, 64
73630272, 16, 9
73647960, 7744, 324
73669788, 27556, 1296
73693700, 5776, 1024
73716572, 36, 1
73734256, 1225, 36
73755068, 1089, 9
73774836, 1225, 16
73795640, 2601, 49
73816428, 6561, 36
73837224, 5625, 289
73859068, 1, 121
73877808, 144, 25
73897564, 324, 16
73917304, 2704, 25
73938116, 4761, 16
73958920, 484, 64
73978684, 9, 0
73995320, 900, 49
74015084, 961, 25
74034828, 841, 121
74055608, 784, 16
74075380, 121, 0
74094116, 4096, 1
74113852, 9216, 400
74135712, 5184, 484
74157544, 25, 49
74176264, 4225, 4
74196032, 6889, 169
74217880, 2401, 196
74239720, 25, 64
74258424, 144, 4
74277160, 361, 0
74295876, 1, 4
74312512, 81, 121
74332276, 4, 169
74351004, 64, 9
74368676, 16, 0
74386348, 16, 0
74404028, 961, 1
74422740, 5041, 361
74444576, 4356, 576
74466440, 3600, 64
74487232, 1521, 100
74509076, 196, 49
74528844, 0, 4
74545464, 3721, 1
74565224, 11449, 400
74588100, 3025, 324
74609964, 16, 4
74627640, 36, 4
74645308, 2500, 361
74667152, 6889, 676
74688976, 961, 361
74709792, 121, 36
74729556, 1444, 16
74750352, 529, 16
74770112, 49, 16
74788836, 121, 0
74807552, 121, 81
74827316, 144, 64
74847052, 529, 16
74866840, 3025, 225
74888672, 1444, 289
74910512, 0, 0
74927156, 81, 4
74944844, 25, 4
74962512, 100, 0
74981236, 36, 1
74998928, 4, 1
75015560, 1, 16
75033228, 529, 0
75051948, 576, 16
75071720, 49, 1
75089392, 225, 36
75109152, 484, 4
75127872, 625, 16
75147644, 361, 16
75167396, 0, 16
75185064, 1024, 4
75204824, 7396, 289
75226668, 10404, 676
75249556, 1681, 169
75271404, 169, 4
75290112, 256, 25
75309876, 16, 16
75328600, 0, 36
75346284, 16, 4
75363964, 64, 1
75381640, 225, 25
75401408, 256, 1
75420120, 1156, 169
75441956, 841, 4
75460676, 256, 1
75479400, 16, 64
75498120, 64, 1
75515800, 1, 1
75532440, 100, 225
75553228, 784, 400
75574032, 9, 121
75592748, 2704, 16
75613548, 7056, 289
75635388, 2916, 361
75657244, 4, 16
75674916, 484, 9
75693632, 100, 0
75712348, 9, 64
75730040, 25, 81
75748764, 1, 25
75766436, 81, 16
75785156, 0, 9
75801792, 1, 25
75819468, 729, 64
75839228, 289, 36
75859000, 81, 4
75876676, 729, 16
75896436, 81, 4
75914120, 121, 4
75932848, 64, 9
75950512, 196, 16
75970264, 289, 4
75988992, 36, 64
76007728, 64, 0
76025392, 0, 16
76043068, 256, 4
76061800, 196, 36
76081560, 49, 100
76101312, 729, 100
76122108, 361, 169
76142932, 361, 36
76162668, 1936, 25
76183456, 1849, 225
76205312, 361, 121
76226112, 0, 16
76243800, 1, 36
76261476, 324, 4
76280196, 1225, 144
76302028, 25, 81
76320744, 484, 25
76340524, 1369, 9
76360272, 2809, 0
76380024, 2704, 441
76401872, 16, 256
76421628, 3721, 64
76442432, 5041, 256
76464284, 676, 196
76485064, 100, 81
76504832, 121, 9
76523568, 16, 0
76541240, 196, 1
76559956, 49, 0
76577640, 9, 4
76594280, 36, 1
76611952, 256, 16
76631708, 100, 1
76650428, 121, 1
76669160, 361, 0
76687876, 1024, 121
76709708, 676, 100
76730516, 169, 0
76749220, 5329, 324
76771068, 625, 676
76791868, 324, 0
76810596, 1, 9
76827220, 361, 100
76848024, 1444, 49
76868816, 8649, 225
76890656, 9604, 900
76912512, 1849, 256
76934372, 121, 1
76953076, 81, 16
76971792, 121, 1
76990528, 1, 81
77008196, 16, 4
77025884, 225, 1
77044608, 9, 25
77062280, 169, 1
77081004, 36, 25
77099700, 225, 64
77119456, 1600, 49
77140276, 144, 9
77158984, 2304, 121
77180824, 441, 121
77201644, 121, 25
77221404, 64, 9
77239068, 196, 9
77257796, 676, 196
77278608, 4, 25
77296276, 324, 4
77314996, 100, 0
77333732, 4, 0
77350360, 81, 4
77368024, 841, 121
77388824, 10816, 900
77411716, 9216, 625
77433548, 625, 100
77454364, 0, 16
77472044, 144, 9
77490752, 196, 1
77509472, 100, 4
77528192, 1764, 25
77548996, 1369, 256
77570828, 81, 100
77590600, 256, 0
77609316, 1089, 1
77629068, 225, 1
77647776, 3136, 36
77668588, 6400, 49
77689376, 0, 1444
77709156, 11025, 961
77732048, 100, 1
77750764, 1369, 4
77770516, 1296, 25
77791304, 0, 81
77809000, 121, 25
77828764, 1849, 4
77848508, 1296, 529
77870368, 1, 81
77888036, 4, 81
77905712, 441, 4
77924444, 361, 9
77943176, 36, 25
77961880, 121, 1
77980588, 196, 25
78000360, 4, 25
78018036, 1, 0
78034676, 9, 16
78052348, 16, 0
78070040, 144, 0
78088760, 225, 4
78107472, 81, 4
78125164, 100, 25
78144916, 0, 0
78161552, 9, 9
78178184, 400, 16
78197944, 7569, 81
78218740, 10404, 289
78241628, 1681, 196
78263492, 16, 9
78281152, 225, 0
78299876, 16, 1
78317544, 49, 64
78336264, 9, 4
78352912, 1444, 121
78374748, 484, 49
78394520, 49, 36
78413232, 441, 64
78432996, 324, 9
78451700, 16, 4
78469404, 0, 1
78486040, 0, 9
78502672, 324, 49
78522440, 1156, 64
78543240, 1089, 64
78564032, 361, 100
78584828, 0, 169
78603564, 4, 121
78622264, 169, 81
78642032, 1, 25
78659712, 49, 0
78677388, 1681, 1
78697140, 6084, 225
78719000, 2704, 324
78740844, 361, 49
78760596, 9, 49
78778268, 169, 25
78798040, 2209, 9
78817776, 4225, 196
78839616, 3600, 400
78861484, 144, 81
78881236, 121, 1
78899952, 121, 1
78918672, 121, 0
78937392, 25, 9
78955068, 16, 1
78972748, 25, 1
78990440, 16, 16
79009164, 81, 1
79026848, 100, 1
79045544, 36, 4
79063232, 676, 16
79083008, 4, 9
79099628, 49, 36
79118356, 4, 4
79134988, 484, 81
79154756, 576, 81
79174520, 121, 64
79194276, 289, 9
79212988, 100, 4
79231720, 49, 64
79250424, 25, 36
79269156, 0, 0
79285804, 49, 1
79303468, 784, 0
79322196, 2500, 289
79344036, 361, 196
79364828, 196, 256
79385644, 144, 324
79406440, 121, 9
79425152, 256, 4
79443872, 0, 9
79460524, 9, 4
79477160, 121, 25
79496916, 144, 81
79516660, 16, 36
79535404, 0, 4
79552036, 25, 4
79569720, 9, 4
79586368, 49, 4
79604032, 1600, 49
79624840, 2209, 144
79646676, 196, 25
79666444, 324, 9
79685152, 324, 9
79703872, 1225, 4
79723632, 4489, 400
79745476, 900, 121
79766284, 225, 9
79785008, 676, 4
79803724, 100, 25
79823456, 196, 49
79843228, 2304, 0
79863000, 1225, 4
79882760, 16, 81
79901472, 289, 196
79922284, 361, 121
79943080, 25, 1
79960748, 169, 4
79979472, 1, 1
79996116, 36, 1
80013788, 484, 1
80032520, 1521, 100
80054352, 729, 169
80075156, 289, 25
80094904, 324, 25
80114664, 1, 16
80132364, 441, 9
80151072, 169, 100
80171872, 9, 36
80189560, 324, 4
80208276, 144, 0
80227000, 0, 9
80243632, 81, 1
80261316, 361, 9
80280028, 361, 16
80299800, 121, 4
80318524, 25, 4
80336208, 0, 4
80352832, 576, 0
80371548, 2116, 100
80393400, 1369, 144
80415240, 196, 1
80433944, 16, 16
80452676, 25, 25
80471400, 1521, 169
80493232, 2209, 121
80515064, 1296, 4
80534836, 400, 16
80554596, 81, 9
80572272, 196, 16
80592044, 64, 9
80609712, 64, 16
80628440, 9, 4
80645072, 196, 9
80663800, 81, 9
80681464, 3025, 100
80703320, 2209, 361
80725152, 64, 49
80743860, 1444, 9
80763640, 1225, 1
80783400, 441, 9
80802124, 676, 1
80820832, 1089, 25
80841628, 784, 64
80861396, 324, 1
80880116, 400, 9
80898836, 784, 49
80918596, 169, 64
80938356, 9, 0
80954996, 25, 16
80973716, 9, 1
80990356, 1, 9
81007000, 16, 25
81025712, 16, 16
81044428, 16, 0
81062120, 9, 25
81079788, 529, 1
81098504, 900, 81
81118276, 36, 36
81136996, 121, 0
81155712, 256, 0
81174420, 36, 0
81192120, 49, 9
81209800, 729, 16
81229560, 256, 9
81248276, 25, 4
81265960, 64, 1
81283636, 36, 4
81301312, 1, 0
81317964, 196, 4
81336676, 676, 81
81356428, 49, 9
81374108, 529, 144
81394912, 64, 81
81413632, 4, 1
81430268, 64, 36
81449000, 49, 289
81468768, 529, 36
81488516, 1849, 36
81509308, 1089, 1
81529080, 256, 36
81548840, 1, 16
81566508, 64, 25
81585240, 16, 4
81602916, 64, 1
81620584, 2809, 36
81641376, 4761, 196
81663240, 1, 100
81681964, 289, 4
81700672, 4, 1
81717320, 400, 121
81738112, 1024, 49
81758908, 400, 100
81779704, 529, 100
81800516, 400, 16
81820268, 4, 9
81836916, 1, 0
81853564, 256, 100
81874360, 144, 36
81894116, 36, 1
81911776, 64, 100
81931552, 64, 361
81951300, 100, 729
81972100, 169, 529
81992924, 441, 0
82011624, 400, 225
82032436, 100, 9
82051160, 625, 400
82071948, 841, 324
82092740, 2304, 100
82114608, 169, 784
82135396, 400, 676
82156184, 729, 100
82176980, 2500, 144
82198840, 9, 64
82216508, 25, 16
82235224, 1024, 324
82257060, 2116, 4
82276836, 2809, 900
82298660, 13456, 1296
82322568, 9604, 16
82343384, 0, 3600
82363116, 9553, 6561
82386032, 0, 4900
82405788, 10201, 2500
82429704, 484, 1089
82451552, 6724, 2500
82474408, 24649, 25
82496248, 4225, 1444
82519140, 32761, 4624
82543036, 10640, 81
82564892, 0, 0
82581536, 6084, 9540
82604436, 64, 17408
82626240, 7744, 0
82646000, 0, 7569
82665792, 729, 9
82684496, 15129, 1225
82708420, 144, 961
82729216, 0, 4624
82748972, 4900, 484
82770808, 9, 25
82788500, 13689, 25
82810328, 2809, 100
82832184, 6084, 64
82852992, 484, 28224
82875860, 0, 0
82892484, 0, 729
82911216, 1156, 5625
82934112, 2304, 1089
82956968, 1764, 7744
82979816, 19321, 8281
83003788, 18769, 3025
83027692, 4761, 7744
83050568, 22201, 14884
83075532, 2500, 400
83097376, 8649, 2601
83120260, 5776, 3364
83143136, 10609, 49
83164968, 14400, 3844
83188900, 6889, 9409
83211776, 27556, 3481
83235692, 24336, 4900
83259620, 32761, 9409
83283536, 18769, 7921
83307448, 22500, 2116
83331380, 23409, 729
83354252, 25, 1849
83375052, 2601, 4489
83397932, 30976, 6400
83421856, 4356, 1156
83444720, 625, 2704
83466564, 3969, 3364
83489456, 0, 1764
83509192, 0, 4489
83528972, 15376, 324
83551860, 256, 36
83571616, 2116, 100
83593452, 1225, 1521
83616320, 6400, 5929
83639196, 26569, 4624
83663132, 1764, 14884
83687052, 1681, 16384
83710968, 6400, 25
83731780, 0, 10404
83752568, 29929, 10404
83777524, 14641, 961
83800424, 2304, 400
83822264, 361, 484
83843060, 2401, 16
83863856, 2916, 1089
83886736, 4225, 3025
83909624, 49, 1024
83930428, 64, 36
83949140, 900, 0
83967860, 13225, 1936
83991788, 14884, 5776
84015700, 324, 576
84036480, 23104, 1521
84060400, 225, 900
84081212, 10816, 484
84104116, 121, 4
84122824, 1764, 289
84144660, 11236, 25
84166488, 0, 2116
84186272, 0, 1296
84206024, 10640, 225
84228896, 0, 8836
84248660, 8464, 6084
84271548, 6561, 576
84293380, 1681, 2025
84316264, 18225, 256
84339148, 784, 1225
84360968, 3025, 1936
84383860, 1369, 900
84405716, 16, 25
84424424, 8649, 169
84446272, 0, 121
84464984, 19145, 5625
84488896, 16833, 5476
84512824, 0, 5041
84532596, 1, 18225
84553380, 27556, 5625
84577304, 3249, 961
84599152, 784, 2916
84620992, 7396, 225
84642800, 8836, 144
84664664, 20736, 169
84687532, 225, 256
84708308, 28561, 2500
84732272, 30564, 3481
84756184, 0, 4225
84775916, 0, 9
84792592, 19472, 14641
84817540, 15689, 14400
84842504, 841, 2209
84864336, 0, 3844
84884092, 7744, 17956
84908020, 2116, 5776
84930908, 1225, 1296
84953792, 1156, 49
84974564, 23104, 81
84996420, 12769, 1521
85020348, 2704, 169
85042184, 0, 1936
85061944, 26880, 5184
85085844, 0, 1444
85105616, 144, 9
85124336, 784, 9
85143052, 29584, 1444
85166984, 0, 1521
85186748, 27556, 1764
85210672, 1156, 36
85231472, 2704, 1681
85254348, 1, 36
85272020, 1024, 289
85293860, 625, 1600
85315708, 0, 1
85332332, 14400, 3136
85356256, 24025, 121
85379132, 14884, 2401
85403052, 10404, 256
85425932, 17161, 625
85448840, 8281, 3969
85471700, 9, 2304
85491460, 19881, 36
85513300, 21904, 1600
85537224, 2704, 400
85559076, 3364, 9
85578808, 324, 961
85599644, 8100, 784
85621468, 7225, 0
85641232, 0, 841
85659940, 7905, 11881
85683868, 18225, 11881
85708836, 1089, 4489
85731704, 7921, 3249
85754584, 12544, 900
85777472, 8100, 81
85798284, 4, 169
85816960, 11881, 289
85839844, 576, 2209
85861708, 2304, 576
85883548, 6889, 2025
85906420, 8836, 64
85927224, 17161, 144
85950100, 0, 8649
85969844, 29241, 13689
85994816, 9025, 256
86016648, 0, 6889
86036416, 144, 961
86057220, 3844, 81
86078020, 225, 121
86098816, 784, 361
86119620, 361, 16
86139368, 0, 576
86158084, 0, 49
86175776, 196, 729
86196584, 841, 196
86217384, 4, 1600
86237128, 100, 441
86257944, 1849, 1
86277696, 1764, 441
86299540, 17956, 1369
86323464, 24025, 2401
86347376, 5329, 3025
86370232, 0, 2116
86390028, 0, 9
86406660, 0, 361
86425376, 8649, 324
86447244, 676, 900
86468028, 1521, 1024
86490908, 7056, 361
86512736, 1024, 361
86534588, 2500, 1444
86557468, 6889, 529
86579308, 6084, 900
86601136, 1521, 1296
86624000, 17956, 25
86645864, 17408, 1296
86669780, 7364, 49
86690596, 19600, 3481
86714496, 14161, 676
86737380, 2209, 3136
86760264, 8281, 36
86781056, 5220, 7744
86803948, 16260, 10201
86828892, 19600, 6241
86852832, 1024, 1225
86875700, 2704, 289
86897544, 2916, 1156
86920416, 169, 256
86941216, 144, 1156
86963068, 1521, 841
86984908, 289, 81
87004652, 11664, 2704
87028584, 29929, 5184
87052488, 0, 3844
87072280, 1600, 1521
87095136, 9025, 196
87116992, 7225, 144
87138828, 841, 289
87159616, 29241, 625
87182508, 26896, 2025
87206432, 2116, 576
87228256, 6084, 841
87250112, 6400, 1089
87272976, 4, 1936
87292744, 324, 4096
87314584, 2401, 289
87336416, 2809, 1936
87359296, 8836, 1089
87382192, 25, 36
87400900, 2209, 0
87420660, 0, 1849
87440436, 289, 7056
87462256, 3249, 1681
87485136, 5041, 784
87506980, 9801, 529
87528824, 4761, 17161
87552732, 24649, 7056
87576664, 31684, 1936
87600588, 8464, 4
87620320, 0, 7056
87640104, 0, 196
87658808, 0, 1156
87678596, 0, 2916
87698316, 32144, 11449
87723308, 3108, 8281
87746188, 4900, 900
87768028, 15876, 3844
87791948, 1225, 1681
87814820, 25, 9
87832484, 10816, 49
87854320, 9409, 1024
87877208, 21609, 441
87900080, 0, 16
87917784, 15625, 1369
87941688, 10201, 7056
87965596, 25281, 6724
87989536, 8464, 64
88010344, 10404, 784
88033228, 12769, 6400
88057152, 13924, 2116
88081056, 20736, 3364
88104984, 19044, 6724
88128912, 1849, 676
88150740, 5929, 784
88172576, 13924, 8100
88196512, 225, 2916
88218332, 2601, 81
88239140, 4225, 49
88259960, 324, 9
88278664, 6561, 0
88298404, 14884, 169
88321296, 4, 441
88340016, 1936, 11664
88363936, 3721, 8281
88386816, 0, 2500
88406584, 0, 9216
88426336, 7396, 4096
88449216, 30625, 361
88472092, 0, 1
88488740, 529, 2209
88510588, 64, 841
88530340, 3025, 484
88552180, 1369, 4225
88575060, 10000, 14400
88600016, 36, 4356
88620812, 2025, 225
88642648, 27556, 1444
88666564, 0, 121
88685304, 9025, 81
88706112, 21316, 1
88726904, 0, 3481
88746660, 3721, 1600
88769544, 0, 196
88788260, 12100, 36
88810108, 81, 900
88829864, 10000, 64
88851704, 17956, 9
88872500, 14641, 1024
88896416, 23716, 3969
88920348, 2304, 4624
88943216, 196, 400
88964012, 3249, 484
88985860, 0, 3136
89005608, 28900, 2809
89029552, 6241, 121
89051392, 49, 25
89070092, 441, 49
89089864, 8836, 9
89109636, 12100, 1369
89133552, 576, 2304
89155380, 22500, 1849
89179308, 8836, 12321
89203224, 1849, 5776
89226076, 0, 7921
89245876, 0, 10816
89266664, 0, 484
89285376, 3481, 1369
89308268, 0, 1089
89328028, 9, 4
89344652, 5476, 3249
89367520, 14884, 17956
89392500, 289, 5776
89414336, 1849, 361
89436176, 3969, 256
89458016, 4624, 2500
89480888, 4096, 8836
89503780, 1681, 1764
89526660, 4096, 324
89548496, 6724, 841
89570360, 17424, 529
89593228, 20449, 441
89616112, 9, 36
89633776, 3721, 4761
89656676, 361, 6561
89678496, 1521, 49
89699288, 6084, 441
89721152, 0, 1600
89740916, 3025, 441
89762744, 13456, 144
89785636, 0, 1296
89805372, 17956, 36
89827192, 15376, 324
89850092, 0, 361
89868820, 2500, 169
89890660, 196, 121
89911464, 225, 4
89930176, 529, 2916
89952012, 11881, 3481
89975948, 0, 784
89994660, 32041, 7921
90018580, 12100, 9025
90042508, 16, 7056
90063300, 3249, 2304
90086156, 5929, 4356
90109072, 2116, 6400
90131944, 1156, 441
90153780, 3136, 1
90173540, 2809, 169
90195372, 225, 81
90215132, 10609, 2601
90239064, 13924, 2809
90262980, 14400, 1936
90286912, 225, 529
90307692, 7921, 81
90328512, 3721, 49
90349308, 529, 1
90368024, 1764, 25
90388824, 841, 400
90409612, 36, 169
90429380, 529, 196
90450192, 3136, 4
90469948, 1, 1
90486572, 17161, 784
90509452, 21025, 169
90532336, 3600, 729
90554188, 10816, 400
90577064, 29241, 196
90599952, 625, 64
90619692, 4489, 81
90640508, 2704, 676
90662340, 8281, 3364
90685220, 24649, 729
90708100, 2500, 0
90727864, 784, 1681
90749708, 3721, 1521
90772572, 0, 2304
90792340, 12321, 2025
90816272, 2209, 256
90838124, 2916, 225
90859944, 169, 1849
90881780, 2601, 1225
90904656, 9216, 1444
90927536, 16900, 4096
90951464, 9, 289
90970180, 25, 4
90987876, 16, 1600
91008660, 3600, 169
91030492, 15129, 1156
91054424, 5041, 361
91076260, 64, 25
91094972, 1, 289
91113708, 10816, 100
91136592, 18769, 441
91159460, 81, 324
91179224, 2116, 0
91198984, 1369, 36
91219784, 625, 1
91238508, 225, 0
91257220, 324, 25
91276972, 256, 441
91297772, 144, 1156
91319624, 100, 900
91340424, 4356, 100
91362252, 27889, 289
91385144, 12996, 81
91406980, 441, 0
91425688, 841, 36
91445468, 36, 256
91465232, 225, 1681
91487052, 1444, 2304
91509948, 196, 196
91530740, 36, 441
91550508, 3844, 484
91572340, 1024, 3969
91595220, 0, 15129
91616008, 18225, 4225
91639948, 2401, 1764
91662816, 2116, 11236
91686744, 4096, 1681
91709628, 10201, 3633
91733540, 841, 0
91752244, 11881, 16
91774104, 0, 21316
91794868, 14089, 12544
91819868, 2064, 18225
91843780, 0, 12864
91864588, 31329, 18697
91889532, 1156, 0
91909292, 2500, 2025
91932168, 0, 0
91948796, 29328, 0
91969608, 3136, 64
91990416, 12544, 576
92013280, 12100, 0
92034100, 6400, 841
92055952, 484, 169
92076748, 144, 16
92096508, 676, 784
92117316, 961, 16
92137064, 1089, 324
92158896, 4, 196
92177624, 0, 36
92195312, 1, 961
92214012, 361, 1089
92235880, 900, 225
92256688, 121, 1089
92278512, 100, 144
92299324, 841, 121
92320120, 169, 144
92340916, 4, 196
92359604, 1369, 0
92379384, 676, 6400
92401216, 225, 7225
92423056, 1764, 1089
92445932, 441, 1681
92467776, 10089, 225
92490652, 0, 1156
92510420, 1, 10816
92531228, 10609, 1545
92555124, 3136, 27489
92579048, 0, 1681
92598820, 3136, 12996
92622736, 21609, 1
92643512, 6561, 1764
92666400, 15376, 14641
92691360, 0, 2209
92711140, 0, 24964
92731948, 7225, 900
92753780, 2401, 121
92775616, 1936, 1225
92798508, 4, 1024
92818244, 1936, 2209
92841148, 22801, 289
92864024, 19321, 1764
92887932, 900, 1225
92909780, 3249, 9801
92932644, 0, 11881
92953460, 0, 6241
92973216, 0, 7225
92992980, 6241, 1521
93015860, 441, 144
93036652, 16, 1521
93057460, 7396, 11236
93081392, 29241, 9
93102184, 15376, 2209
93126092, 3600, 529
93147944, 676, 0
93166664, 4356, 16
93187464, 324, 0
93206180, 400, 529
93226972, 7056, 100
93248844, 1156, 529
93270664, 4356, 25
93291444, 1156, 64
93312276, 441, 961
93333076, 3481, 169
93354892, 3249, 1296
93377788, 784, 484
93398600, 324, 0
93417296, 36, 1521
93438108, 1, 5625
93457852, 441, 4624
93479704, 5184, 529
93501560, 729, 324
93522336, 676, 225
93543136, 4, 4761
93562912, 64, 2601
93583700, 36, 6724
93604504, 1156, 6561
93627380, 6561, 144
93649232, 4225, 729
93671056, 49, 121
93690812, 225, 1225
93712680, 36, 16
93731380, 4, 169
93750104, 529, 0
93768836, 4, 25
93786512, 1764, 16
93807312, 8464, 4
93827052, 169, 1296
93848900, 324, 6241
93870748, 2916, 324
93892572, 256, 361
93913380, 196, 0
93932096, 4, 3969
93951868, 121, 2704
93973704, 289, 3136
93995544, 256, 3969
94017384, 784, 1
94036108, 2601, 64
94056912, 1936, 576
94078752, 961, 2500
94100600, 441, 961
94121396, 49, 100
94141160, 144, 529
94161960, 16, 289
94181716, 36, 16
94200440, 1, 64
94218124, 324, 144
94238916, 1600, 64
94259716, 484, 49
94279468, 49, 49
94298204, 441, 25
94317956, 1225, 36
94338756, 36, 256
94358508, 121, 196
94379316, 484, 1
94398016, 2116, 4225
94420884, 1764, 11236
94444832, 9, 676
94463548, 3844, 529
94485384, 576, 196
94506200, 1156, 676
94528028, 900, 1764
94549864, 225, 1
94568584, 961, 81
94588348, 4689, 196
94610168, 0, 1024
94629948, 3721, 121
94651792, 0, 2304
94671540, 32761, 484
94694396, 2025, 1444
94717288, 9409, 1849
94740172, 6724, 9
94759944, 8464, 1225
94782828, 2304, 676
94804660, 4225, 900
94826484, 0, 576
94845232, 2884, 2500
94868104, 0, 3721
94887868, 0, 1849
94907624, 11748, 3481
94931540, 13456, 2500
94955452, 9216, 49
94976252, 0, 729
94994976, 5329, 144
95016816, 144, 36
95036580, 3969, 400
95058420, 2401, 100
95080256, 30625, 1681
95104188, 22201, 400
95127064, 11025, 324
95149940, 10404, 9
95170736, 17956, 1681
95194648, 25, 3721
95215476, 1849, 0
95235216, 5476, 529
95257072, 6561, 1296
95279944, 576, 36
95299712, 225, 144
95320516, 961, 4
95339228, 4356, 289
95361072, 144, 676
95381876, 9, 169
95400588, 361, 25
95420340, 2304, 289
95442192, 2916, 256
95464016, 15876, 441
95486908, 169, 1849
95508744, 8100, 16
95529532, 484, 324
95550340, 6084, 1089
95573220, 961, 100
95594016, 484, 256
95614812, 169, 324
95635612, 15376, 121
95658508, 7056, 1681
95681384, 9216, 961
95703228, 0, 841
95721948, 27225, 7921
95745856, 0, 4761
95765644, 17408, 2401
95789528, 7364, 4761
95812404, 22500, 1764
95836352, 5041, 81
95857140, 81, 256
95876896, 0, 2025
95896648, 30625, 3481
95920580, 7921, 144
95942432, 3249, 49
95963228, 1521, 2025
95986104, 64, 361
96005844, 20164, 225
96028728, 8464, 4225
96051620, 400, 100
96072416, 2809, 441
96094268, 100, 1521
96116112, 14884, 576
96138976, 7569, 64
96159784, 841, 441
96180576, 7921, 441
96202420, 5476, 576
96224248, 26896, 400
96247148, 11025, 2209
96271060, 1024, 324
96292904, 144, 36
96312660, 1681, 81
96333452, 8836, 196
96355284, 4624, 16
96376092, 5776, 441
96397932, 13924, 625
96420816, 5329, 484
96442676, 484, 4
96461384, 484, 144
96482200, 961, 1
96500908, 1024, 400
96522744, 484, 441
96543544, 16384, 900
96566416, 20736, 2401
96590332, 5329, 400
96612188, 6084, 576
96634028, 8649, 4
96653792, 6561, 144
96675628, 1600, 4
96695376, 10201, 121
96718260, 2916, 196
96740104, 1936, 729
96761932, 10201, 2601
96785872, 3364, 0
96805632, 0, 100
96824344, 16384, 144
96847216, 14400, 1936
96871136, 19321, 64
96893004, 25, 4
96910668, 0, 100
96929368, 14400, 3721
96953284, 12100, 484
96976192, 2025, 169
96998024, 3969, 4
97017784, 625, 1296
97039628, 9216, 100
97061448, 10201, 1089
97085368, 27556, 4225
97109296, 16900, 4489
97133220, 0, 25
97150876, 2585, 3249
97173800, 14553, 5625
97197696, 14641, 1024
97221612, 3249, 1
97241392, 900, 49
97261152, 3600, 1089
97284032, 144, 0
97302756, 7569, 4
97322504, 14400, 2025
97346424, 4489, 324
97368256, 2500, 576
97390128, 529, 16
97409868, 289, 9
97428576, 100, 1024
97450408, 1681, 121
97472256, 6241, 169
97494096, 841, 121
97514904, 3721, 225
97536740, 1936, 0
97556524, 1, 1
97573164, 5776, 121
97594984, 169, 196
97615788, 676, 0
97634504, 6724, 36
97655312, 729, 625
97676104, 484, 49
97695876, 324, 9
97714576, 3844, 289
97736416, 121, 289
97757236, 7225, 49
97778028, 5329, 784
97799864, 625, 529
97820648, 30276, 1089
97844596, 13988, 6724
97868492, 0, 3600
97888252, 225, 25
97908028, 0, 400
97926728, 21904, 1369
97950660, 24336, 144
97973560, 11236, 441
97996424, 5041, 81
98017208, 4356, 1600
98040108, 576, 36
98059872, 11025, 121
98082728, 12996, 100
98105628, 900, 225
98126440, 196, 64
98146192, 1225, 1
98165948, 9, 36
98183616, 400, 225
98204432, 25, 49
98223144, 900, 441
98243940, 361, 225
98264732, 9, 16
98282408, 0, 4
98299080, 16129, 256
98321944, 1545, 2116
98344820, 10201, 2500
98368748, 1849, 121
98390572, 21904, 441
98413452, 0, 529
98432172, 8100, 1089
98455068, 1225, 225
98476912, 49, 529
98496668, 3136, 9
98516412, 1936, 400
98538268, 324, 529
98559052, 19600, 529
98581920, 11025, 1681
98605860, 3721, 0
98625616, 6724, 64
98646408, 841, 625
98667224, 4, 4
98683840, 14161, 121
98706748, 5329, 1089
98729612, 7225, 100
98751456, 1, 225
98770172, 0, 4624
98789952, 15689, 6724
98813860, 11449, 121
98836736, 1849, 576
98858580, 10609, 1681
98882492, 1028, 729
98904336, 0, 1681
98924092, 6889, 2601
98946968, 900, 841
98967772, 1225, 81
98988576, 9216, 49
99009376, 14884, 361
99032272, 27225, 1089
99056172, 6084, 1024
99079060, 14884, 81
99100908, 3721, 400
99122744, 400, 100
99143540, 1024, 0
99163300, 361, 289
99184100, 1225, 324
99205928, 6400, 676
99227780, 3249, 81
99248568, 7569, 324
99270416, 36, 64
99289148, 1936, 0
99308900, 18769, 16
99330736, 8281, 1024
99353628, 2209, 4
99373392, 2500, 1225
99396268, 49, 4
99413932, 4096, 36
99434740, 441, 900
99455528, 529, 144
99476340, 324, 441
99497148, 144, 81
99516900, 8649, 169
99538724, 16129, 2304
99562656, 144, 225
99583468, 3721, 784
99605288, 1024, 25
99626104, 11664, 961
99648980, 81, 225
99668736, 5041, 324
99690580, 484, 256
99711388, 3600, 81
99732184, 7056, 961
99754028, 225, 289
99774832, 2809, 121
99796636, 28900, 841
99819544, 0, 3025
99839288, 1156, 0
99859040, 4356, 576
99880888, 169, 900
99901704, 7396, 4
99921444, 19321, 64
99943304, 3721, 2401
99966180, 0, 36
99983852, 0, 7569
100003604, 0, 3136
100024412, 64, 36
100044188, 5184, 64
100066028, 121, 81
100086820, 0, 81
100105536, 4160, 4489
100129452, 24964, 3844
100154412, 0, 121
100174184, 0, 1369
100194976, 3969, 1024
100218892, 361, 81
100239688, 324, 49
100260496, 121, 625
100282328, 256, 36
100303140, 2601, 169
100326016, 1225, 784
100348888, 5476, 256
100371800, 3600, 0
100392580, 900, 324
100414416, 81, 0
100433156, 9025, 9
100453932, 17956, 441
100477836, 6241, 36
100499704, 0, 3025
100520488, 14161, 2025
100545460, 1849, 4
100566264, 17161, 1
100588096, 11664, 625
100612012, 441, 2601
100634908, 225, 1369
100657784, 7396, 169
100680656, 169, 225
100702500, 25, 841
100723292, 0, 3600
100744088, 0, 7056
100764908, 4900, 1225
100788820, 0, 676
100808576, 28224, 2401
100833544, 0, 529
100853316, 9801, 361
100876176, 0, 2209
100896976, 0, 5329
100917792, 8836, 1225
100941700, 3969, 64
100963536, 32761, 49
100986412, 18564, 4624
101011376, 0, 5776
101032192, 8836, 441
101055044, 27889, 4
101076904, 19321, 1089
101101868, 1225, 676
101124744, 1, 9
101142416, 289, 9
101162192, 400, 144
101184032, 81, 961
101204820, 9409, 16
101226664, 5184, 900
101249552, 625, 49
101270348, 49, 100
101291144, 28900, 1
101312988, 1028, 2500
101336900, 0, 3249
101357704, 21025, 1600
101382660, 16384, 289
101406572, 19600, 1681
101431544, 0, 361
101451292, 1024, 225
101474176, 18769, 4
101496024, 19881, 900
101519940, 8836, 2116
101543860, 24964, 529
101567796, 784, 625
101589608, 5625, 0
101610412, 2209, 225
101633308, 11664, 0
101655144, 324, 144
101676976, 5329, 196
101699876, 169, 576
101721712, 15376, 484
101745600, 4225, 3025
101769540, 625, 49
101790348, 4761, 400
101813224, 144, 289
101835076, 16, 36
101854828, 1369, 324
101877696, 3600, 256
101900572, 1681, 676
101923464, 0, 676
101943208, 0, 2500
101964032, 0, 2916
101984816, 32041, 2500
102009776, 4761, 961
102032660, 513, 225
102054520, 21489, 5184
102079444, 0, 5041
102100256, 13924, 1521
102125208, 2401, 1225
102149140, 18225, 225
102173076, 16900, 1681
102198016, 11664, 324
102221952, 8836, 100
102244816, 6241, 289
102267700, 29584, 625
102291632, 12544, 961
102315552, 11881, 9
102337392, 3136, 2025
102361320, 81, 144
102382124, 4, 36
102400840, 169, 1
102420592, 144, 400
102442436, 4, 144
102462204, 9, 196
102481952, 16, 289
102502764, 0, 1
102520436, 49, 81
102540192, 1, 9
102557876, 36, 225
102578680, 36, 36
102598432, 25, 196
102619232, 36, 841
102640032, 8836, 4
102660824, 28561, 784
102684744, 1024, 25
102706572, 12321, 2209
102731544, 361, 961
102753392, 484, 256
102775220, 0, 4
102792892, 0, 1521
102813692, 5476, 121
102836576, 8100, 2500
102860488, 7921, 256
102883376, 27225, 784
102907284, 4352, 3025
102931224, 0, 16384
102953056, 0, 0
102970716, 15625, 0
102992572, 27489, 1156
103017532, 0, 100
103037312, 28713, 16
103060164, 0, 32400
103082016, 1849, 27556
103106972, 1936, 100
103129856, 4, 3249
103150660, 1681, 1764
103174584, 4, 10609
103196412, 361, 24649
103220352, 25, 7396
103242188, 4489, 0
103262968, 16641, 256
103286900, 6724, 6400
103310820, 8100, 1156
103334744, 3249, 225
103357628, 5476, 256
103380496, 256, 21904
103404412, 3249, 28900
103429380, 6400, 121
103452260, 1, 6561
103473048, 3969, 8464
103497000, 6400, 14641
103521944, 25281, 2601
103546904, 4096, 5476
103570828, 6084, 2809
103594728, 14161, 400
103618656, 1849, 1296
103642572, 100, 1936
103665444, 81, 9216
103687288, 36, 21316
103710168, 31684, 7396
103735120, 20736, 5929
103760108, 1225, 196
103782980, 9, 1225
103803780, 2304, 1225
103827704, 2209, 196
103850572, 5625, 64
103872420, 4096, 1521
103896352, 6084, 900
103919204, 24025, 7056
103944160, 1156, 18496
103969128, 169, 0
103988892, 0, 0
104006572, 25668, 32041
104032592, 0, 8649
104053380, 12321, 3025
104078320, 1681, 8649
104102260, 3025, 24649
104127220, 3481, 17956
104152176, 24025, 0
104174024, 18225, 4096
104198988, 5041, 9
104219756, 18769, 4761
104244748, 9, 10201
104266576, 5184, 2601
104290504, 18225, 1
104312352, 7921, 49
104334188, 1089, 1444
104358104, 4900, 5041
104382032, 26244, 4
104403852, 21025, 5041
104428844, 169, 441
104450656, 400, 529
104472500, 49, 3025
104494344, 441, 100
104516192, 9, 3481
104536984, 100, 7569
104559868, 1369, 64
104581696, 625, 529
104603548, 324, 2916
104626424, 64, 16900
104649292, 4900, 1521
104673200, 30625, 529
104697136, 2916, 1764
104721048, 2809, 3481
104744976, 196, 196
104766840, 324, 100
104788660, 676, 81
104809448, 1444, 10609
104834416, 676, 8649
104857292, 7056, 169
104880192, 1764, 400
104903064, 36, 1089
104924908, 121, 1
104944660, 6400, 121
104967532, 21316, 64
104990416, 14884, 784
105014340, 121, 1936
105037216, 25921, 2809
105062164, 16900, 1849
105087136, 841, 1024
105110020, 5041, 0
105130836, 10609, 324
105154756, 12544, 1225
105179692, 30625, 7569
105204656, 10404, 13689
105230660, 2704, 1225
105254588, 9801, 2025
105278516, 1, 81
105297228, 5041, 361
105320108, 625, 225
105341932, 2704, 9
105362748, 5625, 1521
105386656, 4356, 4489
105410588, 3721, 4624
105434508, 7744, 64
105456332, 19321, 6241
105481316, 361, 1156
105504184, 121, 1024
105527068, 961, 1600
105549952, 0, 1024
105570740, 784, 9604
105593636, 1, 19600
105615472, 15876, 441
105639372, 8100, 4761
105663296, 1521, 2704
105687236, 0, 2209
105708008, 225, 36
105728836, 3600, 1444
105752744, 18769, 1600
105777696, 0, 10000
105799536, 1156, 12544
105824504, 17956, 4
105846348, 6889, 2500
105870256, 121, 100
105892100, 2500, 1681
105916000, 5625, 9801
105939936, 25, 6084
105961780, 9, 1
105979456, 19600, 4
106001304, 9604, 9
106022112, 16129, 1089
106047056, 29929, 196
106070980, 6889, 441
106093856, 15625, 1521
106118812, 10816, 5184
106143788, 144, 1156
106166660, 225, 0
106186416, 196, 100
106208272, 1, 16
106226988, 4, 49
106245704, 1600, 729
106268580, 1600, 484
106291472, 900, 81
106312260, 3249, 121
106335144, 4489, 5929
106359072, 1600, 10609
106384024, 5041, 121
106406896, 8464, 361
106429788, 36, 400
106450572, 2916, 169
106473448, 7396, 2209
106497384, 361, 2401
106520256, 15376, 900
106544200, 12769, 2809
106569144, 3481, 1
106589940, 1936, 729
106612812, 0, 9409
106633628, 4225, 11236
106658584, 9409, 169
106681456, 1024, 100
106704348, 13225, 576
106728264, 7744, 81
106750088, 14641, 1024
106775060, 3721, 11449
106800024, 1024, 2116
106823952, 1764, 36
106845776, 3025, 64
106867612, 169, 3481
106890508, 5625, 3969
106914412, 2704, 729
106937296, 441, 36
106958108, 3136, 625
106980972, 2704, 121
107003872, 100, 100
107025708, 49, 100
107046500, 81, 1600
107068340, 484, 2809
107091220, 13924, 2809
107116168, 9025, 625
107139056, 64, 100
107159856, 4624, 7744
107183784, 8649, 8281
107207700, 729, 1089
107230568, 3481, 256
107253448, 144, 256
107275300, 4, 196
107295064, 196, 81
107315844, 2601, 9
107336652, 225, 784
107358512, 1369, 64
107380344, 4096, 576
107403224, 900, 25
107424028, 16, 256
107444824, 361, 1
107464580, 729, 196
107486424, 0, 16
107505128, 7921, 729
107528028, 576, 361
107549872, 31684, 5329
107574820, 2500, 3844
107598744, 225, 2025
107621616, 15625, 676
107645532, 11664, 576
107669452, 16, 361
107690264, 3721, 196
107713148, 6561, 2916
107737052, 169, 400
107758912, 2025, 3364
107782828, 841, 1600
107805708, 8649, 81
107827548, 441, 81
107848348, 3481, 16
107870176, 2916, 225
107893068, 2916, 16
107914884, 4489, 2401
107938808, 6400, 441
107961704, 28224, 1089
107986640, 9025, 2704
108010592, 400, 400
108032416, 961, 64
108053236, 49, 400
108074044, 36, 841
108094820, 4356, 0
108115632, 961, 625
108137456, 3481, 144
108160344, 11881, 784
108184252, 2025, 25
108206112, 3969, 324
108228988, 1444, 9
108249784, 225, 9
108269540, 1, 1
108287220, 12321, 2704
108312180, 22201, 9025
108337132, 400, 4225
108360036, 9216, 25
108381868, 4761, 121
108404760, 0, 36
108423476, 36, 841
108444264, 16, 529
108465068, 1521, 1
108485880, 10816, 49
108508740, 900, 81
108529536, 4096, 144
108552428, 4624, 961
108575288, 5776, 2809
108599212, 576, 5329
108622096, 8649, 1225
108646032, 7225, 729
108668884, 21609, 4096
108693868, 1849, 3969
108717772, 9025, 3600
108741708, 49, 9
108760432, 2025, 4096
108784340, 441, 441
108806192, 12321, 441
108830096, 30976, 784
108854004, 5041, 5041
108877936, 400, 1296
108900832, 529, 784
108922664, 0, 36
108941380, 400, 529
108963232, 36, 1024
108985068, 7056, 1936
109008980, 17689, 441
109032896, 5929, 2500
109056816, 2116, 1156
109080748, 289, 64
109101548, 1600, 400
109124436, 81, 49
109144188, 1156, 9
109164976, 7225, 625
109187876, 3136, 225
109210760, 484, 841
109232596, 1296, 1849
109256512, 121, 1849
109279388, 2601, 0
109300184, 1600, 1681
109324104, 841, 1849
109346992, 1521, 484
109369872, 100, 8281
109392744, 1, 20449
109414604, 81, 961
109435384, 5476, 121
109458264, 1521, 676
109481164, 729, 36
109501936, 576, 841
109523784, 3721, 289
109546648, 30625, 841
109570592, 8836, 2025
109594500, 3600, 1
109615312, 16641, 1
109637148, 13225, 16
109660028, 900, 3249
109682912, 196, 4
109702668, 484, 3600
109725552, 2401, 841
109748436, 3249, 16
109770268, 1600, 961
109793152, 7056, 1225
109817060, 20164, 2601
109842016, 0, 2601
109862812, 4489, 196
109885696, 5776, 3249
109909620, 9604, 5184
109933528, 3600, 256
109956428, 17161, 2704
109981372, 10201, 324
110005300, 7921, 576
110028192, 484, 1296
110051060, 289, 144
110072900, 841, 961
110094752, 1521, 1296
110118664, 576, 2916
110141540, 400, 529
110163380, 1849, 36
110185216, 784, 961
110207064, 484, 529
110228900, 256, 361
110250748, 676, 64
110271556, 121, 1024
110294424, 1156, 9
110315224, 7921, 9
110336036, 3136, 784
110358908, 49, 100
110379708, 256, 1156
110402592, 841, 9
110422344, 2500, 1849
110446276, 25, 784
110467056, 256, 49
110487864, 576, 441
110509700, 25, 1444
110531532, 1600, 2809
110555476, 3969, 5041
110579372, 625, 2809
110602280, 2401, 169
110625164, 1225, 225
110648028, 16, 9
110666748, 25, 49
110686520, 324, 16
110707312, 400, 49
110728108, 529, 36
110748912, 1, 2916
110769704, 64, 1764
110791536, 17161, 576
110815448, 25921, 289
110839392, 16, 64
110859156, 1225, 900
110882028, 2209, 2401
110905936, 10000, 100
110929864, 9409, 961
110952752, 1600, 121
110975624, 23104, 256
110999536, 100, 324
111021380, 25600, 256
111045284, 31329, 2916
111070264, 2704, 1225
111094184, 11449, 16
111117072, 5041, 25
111138912, 289, 196
111160736, 7744, 225
111183624, 5329, 36
111205472, 361, 100
111227308, 529, 289
111249144, 5929, 324
111272024, 25281, 484
111295936, 13689, 1024
111320896, 196, 144
111342748, 100, 81
111363540, 1089, 676
111386428, 100, 100
111408264, 441, 144
111430104, 2025, 64
111451960, 0, 625
111471712, 1444, 900
111494592, 441, 324
111516424, 16, 64
111536188, 16, 576
111556992, 784, 784
111578820, 3249, 144
111601708, 8281, 2401
111625620, 1296, 1521
111649548, 2704, 121
111672440, 784, 400
111694272, 64, 625
111715064, 529, 900
111736912, 484, 484
111758756, 169, 1
111778504, 169, 576
111800340, 121, 289
111822192, 2401, 64
111844028, 2704, 400
111866908, 3136, 4
111887704, 9025, 441
111910568, 2500, 28224
111935552, 36, 19881
111958408, 2704, 225
111981284, 12769, 2401
112006256, 14161, 17956
112032268, 5929, 14641
112057236, 14641, 8836
112082156, 0, 2401
112102960, 7744, 7396
112126880, 4761, 16
112148736, 5329, 36
112170580, 49, 841
112191372, 144, 625
112213224, 1600, 3969
112237136, 5476, 1
112257936, 100, 1089
112280828, 49, 324
112301620, 900, 2916
112324504, 900, 196
112346336, 3600, 9604
112370244, 10609, 17161
112396236, 12544, 11236
112422264, 9604, 21025
112447224, 144, 5184
112470108, 144, 10609
112494012, 9216, 3969
112517928, 22201, 225
112541856, 3025, 6561
112565780, 5625, 49
112587612, 11025, 256
112611544, 144, 7744
112634432, 2500, 1296
112658336, 0, 4096
112679140, 1089, 19044
112704096, 169, 14884
112728016, 4096, 13456
112752976, 484, 8649
112775848, 4900, 1936
112799784, 4225, 3025
112823700, 4489, 1024
112847628, 10404, 1
112869476, 361, 100
112891308, 289, 16
112912104, 144, 1
112931880, 9, 484
112951628, 0, 289
112971368, 9, 8464
112992168, 1444, 14400
113017156, 5929, 841
113040036, 2209, 169
113062900, 4, 0
113080596, 0, 1225
113101388, 196, 3025
113124260, 121, 2025
113147152, 1, 441
113166916, 529, 1
113186660, 2401, 49
113208516, 5476, 4
113229316, 2116, 100
113252188, 121, 441
113274036, 121, 196
113295872, 169, 529
113317708, 2304, 225
113340600, 1369, 25
113362436, 0, 9
113380120, 225, 36
113400916, 144, 0
113420688, 9, 1
113438364, 0, 1
113456024, 100, 100
113477880, 289, 324
113499712, 400, 25
113520512, 484, 81
113541316, 196, 49
113562116, 9, 16
113580832, 4, 49
113599564, 1, 81
113618284, 361, 9
113638036, 400, 25
113658824, 256, 25
113679636, 441, 0
113699388, 169, 9
113719156, 144, 25
113739952, 25, 289
113760756, 4, 25
113779476, 36, 49
113799232, 169, 169
113821096, 4, 49
113839800, 4, 0
113857476, 25, 16
113877236, 36, 81
113896992, 289, 4
113916760, 400, 196
113938592, 576, 81
113959388, 784, 0
113979148, 100, 25
113999956, 4, 16
114018696, 0, 225
114038436, 121, 36
114059220, 256, 4
114079016, 9, 4
114096680, 9, 144
114116440, 4, 9
114134112, 441, 169
114155944, 2025, 25
114177796, 361, 1
114197564, 9, 9
114215236, 64, 1
114233944, 841, 25
114254752, 3136, 676
114277652, 1681, 441
114300512, 100, 25
114321312, 16, 49
114341080, 25, 144
114361888, 49, 25
114381640, 25, 4
114400356, 289, 225
114422192, 676, 121
114444024, 484, 16
114464840, 0, 9
114482508, 676, 0
114502256, 6084, 169
114525140, 4900, 1444
114549072, 361, 1024
114571960, 0, 324
114591716, 81, 196
114612520, 121, 361
114634352, 0, 49
114653064, 1089, 361
114675956, 3136, 1225
114699864, 225, 1089
114722744, 441, 25
114743544, 4356, 0
114764352, 3969, 16
114786188, 1, 49
114804916, 169, 64
114825716, 4, 36
114844420, 36, 0
114863164, 441, 1
114882908, 169, 25
114903712, 1369, 0
114924512, 900, 25
114945316, 169, 36
114966116, 0, 9
114983792, 1, 9
115001484, 16, 64
115021232, 49, 16
115040992, 324, 25
115061812, 1, 81
115080516, 225, 0
115100268, 169, 144
115122104, 784, 49
115142916, 4, 25
115161644, 225, 36
115182436, 196, 25
115203236, 400, 1
115222988, 49, 100
115243780, 9, 196
115263552, 0, 169
115283324, 81, 64
115303080, 169, 4
115322832, 36, 16
115342592, 441, 16
115363396, 25, 4
115382124, 100, 49
115402912, 36, 36
115422676, 64, 144
115443468, 289, 0
115463232, 100, 9
115483004, 25, 361
115503796, 36, 81
115523556, 196, 36
115544360, 81, 225
115565156, 1, 64
115583880, 64, 9
115602596, 16, 9
115621308, 361, 81
115642108, 3481, 49
115663956, 4225, 64
115685804, 784, 25
115706604, 16, 4
115725312, 196, 25
115746112, 841, 1
115765880, 225, 4
115785636, 4, 49
115804352, 64, 9
115823076, 4, 0
115840744, 4, 1
115858428, 576, 1
115878184, 225, 16
115898988, 1156, 9
115919780, 225, 256
115941640, 289, 1156
115964516, 16, 144
115985312, 361, 1
116005080, 256, 16
116025884, 1, 1
116043556, 0, 1
116061252, 0, 49
116079960, 9, 225
116099712, 1, 121
116119464, 36, 196
116140268, 1024, 121
116163152, 1089, 25
116185000, 225, 4
116204756, 64, 25
116224512, 144, 100
116246360, 121, 36
116267164, 1, 25
116285872, 16, 169
116306680, 1, 1
116324340, 49, 121
116345156, 121, 100
116366996, 49, 100
116387776, 529, 121
116409628, 2304, 196
116432516, 196, 9
116452260, 4, 49
116471000, 4, 81
116489716, 64, 169
116510512, 25, 16
116530284, 196, 81
116551080, 196, 441
116572928, 49, 225
116593724, 81, 0
116612448, 36, 1
116631160, 81, 49
116650912, 1, 36
116669640, 400, 100
116691484, 1369, 225
116714356, 144, 4
116734120, 0, 16
116752828, 144, 1
116772592, 121, 16
116793416, 0, 1
116811080, 25, 16
116830840, 64, 1
116849548, 16, 36
116869324, 1, 1
116886984, 361, 0
116906748, 4356, 121
116929640, 2401, 841
116952504, 121, 64
116973308, 64, 4
116992040, 121, 25
117012848, 1, 16
117031556, 1, 16
117050272, 1, 25
117069000, 1, 4
117086684, 289, 64
117107476, 576, 9
117127244, 9, 1
117144928, 196, 36
117165700, 625, 49
117186504, 289, 4
117206284, 25, 64
117226036, 81, 4
117244748, 289, 36
117265556, 64, 169
117286352, 36, 16
117306104, 81, 25
117325884, 144, 16
117346680, 1225, 1
117367476, 625, 100
117389308, 36, 169
117410124, 16, 49
117429880, 169, 25
117450672, 324, 0
117470436, 121, 1
117490208, 1, 9
117507872, 36, 9
117526584, 1156, 1
117547396, 4356, 36
117569228, 1681, 81
117591084, 49, 1
117609804, 25, 4
117628508, 36, 49
117648276, 1156, 0
117669088, 1369, 49
117690920, 121, 25
117711712, 1, 25
117730436, 9, 1
117748120, 0, 9
117765788, 144, 36
117786580, 196, 0
117806364, 361, 1
117826108, 2304, 0
117846908, 2916, 400
117869808, 676, 361
117891628, 4, 100
117911400, 0, 121
117931160, 0, 9
117948836, 64, 4
117967556, 81, 64
117987316, 0, 25
118006044, 25, 16
118025800, 16, 4
118044528, 256, 4
118064272, 25, 64
118084016, 256, 64
118104832, 529, 0
118124592, 625, 196
118146440, 64, 4
118165148, 49, 121
118185944, 784, 25
118206768, 4, 9
118224432, 100, 4
118244192, 49, 100
118265000, 81, 225
118285800, 36, 36
118305556, 9, 0
118323244, 4, 1
118340924, 25, 1
118359636, 49, 36
118379396, 0, 49
118398124, 16, 25
118417872, 25, 4
118436588, 16, 64
118456364, 81, 25
118476112, 0, 0
118493788, 0, 9
118511480, 1, 169
118531252, 16, 64
118551000, 25, 25
118570756, 81, 36
118590520, 64, 9
118609256, 25, 16
118628992, 4, 100
118648740, 225, 0
118668524, 225, 36
118689328, 9, 9
118706988, 16, 25
118726756, 25, 64
118746520, 0, 9
118764188, 441, 1
118783940, 1849, 49
118805800, 1444, 144
118828676, 9, 100
118848436, 289, 1
118868196, 196, 36
118889004, 25, 16
118908760, 9, 16
118927476, 25, 4
118946196, 0, 16
118964916, 0, 36
118983628, 36, 64
119003396, 121, 196
119025232, 196, 100
119047080, 49, 9
119065796, 100, 0
119085556, 121, 49
119106356, 16, 64
119126116, 36, 9
119144836, 36, 4
119163560, 4, 64
119182264, 81, 64
119202044, 1, 9
119219720, 16, 9
119238440, 36, 0
119257164, 196, 9
119276920, 9, 16
119295636, 4, 36
119314348, 1, 100
119334124, 4, 100
119353880, 36, 49
119373636, 36, 16
119393400, 100, 1
119413156, 64, 4
119431880, 1, 36
119450584, 64, 1
119469324, 0, 361
119489076, 64, 25
119508840, 1, 4
119526528, 144, 0
119546284, 36, 1
119564992, 49, 16
119584744, 144, 64
119605568, 36, 100
119626360, 25, 4
119645080, 49, 49
119664840, 49, 36
119684584, 784, 36
119705392, 529, 169
119727240, 676, 64
119748032, 841, 144
119769872, 36, 49
119789636, 9, 9
119807316, 16, 25
119827076, 121, 81
119847872, 144, 9
119867640, 225, 64
119888432, 100, 36
119909240, 16, 9
119927956, 121, 64
119948760, 36, 9
119967476, 1, 4
119985144, 0, 100
120004912, 1, 36
120023632, 9, 9
120041304, 625, 81
120062120, 1156, 81
120083964, 1, 16
120102676, 361, 4
120122444, 16, 9
120141164, 361, 0
120160920, 196, 121
120182744, 121, 441
120204596, 169, 144
120226428, 4, 1
120244116, 1, 4
120261808, 81, 9
120280524, 0, 36
120299236, 64, 36
120319008, 4, 81
120337724, 16, 256
120358504, 81, 9
120377224, 256, 144
120399084, 225, 4
120418844, 169, 4
120438596, 196, 121
120460440, 1, 324
120480196, 16, 81
120499952, 36, 256
120520760, 0, 576
120540504, 400, 100
120562348, 1444, 81
120584180, 225, 225
120606036, 16, 4
120624752, 4, 0
120642436, 16, 9
120661156, 144, 25
120681956, 529, 49
120702748, 121, 9
120722520, 25, 16
120742276, 64, 49
120762028, 49, 16
120781792, 1, 16
120800524, 169, 25
120821312, 1089, 9
120842108, 961, 144
120863964, 1, 49
120882684, 529, 9
120902432, 400, 4
120922200, 81, 25
120941964, 16, 36
120961712, 1, 16
120980428, 4, 81
120999164, 0, 36
121017884, 81, 169
121038676, 225, 361
121060520, 81, 4
121079228, 400, 0
121098992, 961, 0
121118764, 729, 25
121139552, 0, 36
121158268, 484, 4
121178032, 144, 64
121198832, 9, 25
121217568, 4, 0
121235240, 36, 1
121253956, 0, 1
121271636, 49, 0
121290344, 4, 0
121308040, 25, 49
121327804, 4, 100
121347552, 1, 9
121365224, 16, 49
121385000, 25, 81
121404764, 4, 4
121422436, 16, 9
121441152, 36, 25
121460924, 16, 1
121479640, 0, 16
121498360, 9, 4
121516028, 1, 529
121535796, 9, 729
121555560, 25, 36
121575312, 0, 121
121595080, 25, 196
121615876, 36, 16
121635636, 36, 144
121656436, 256, 484
121678272, 2025, 49
121700104, 3481, 49
121721968, 1156, 64
121743796, 9, 4
121761472, 81, 25
121781228, 1, 49
121799960, 100, 64
121820756, 1, 36
121839468, 121, 16
121860280, 121, 1
121880028, 196, 0
121899804, 25, 9
121918516, 81, 4
121937228, 289, 16
121958028, 1764, 9
121978832, 361, 9
121998604, 49, 0
122017320, 81, 36
122037076, 4, 49
122055804, 81, 0
122074524, 169, 144
122096352, 0, 576
122116092, 1849, 169
122138992, 5776, 529
122161876, 2809, 1156
122185792, 4, 361
122205564, 961, 144
122227388, 576, 121
122249244, 0, 81
122267952, 100, 64
122288748, 1, 729
122308500, 169, 6889
122331384, 36, 6724
122353208, 484, 5929
122376096, 4, 29584
122397948, 1089, 15876
122422892, 961, 0
122442656, 2916, 14884
122467616, 5476, 12769
122492588, 6724, 3364
122516516, 961, 81
122537296, 17408, 1024
122562256, 0, 361
122582028, 144, 11449
122605960, 196, 3721
122628824, 0, 64
122647520, 21609, 144
122671452, 9604, 1681
122695356, 25921, 12321
122721368, 6288, 8804
122745288, 20449, 20900
122771296, 16641, 1156
122796252, 10816, 4900
122821216, 784, 5041
122844100, 21904, 0
122865940, 1600, 0
122886724, 5625, 3136
122910660, 0, 6561
122931464, 17956, 9216
122956428, 1521, 16
122978240, 28561, 4356
123003216, 13456, 784
123027152, 2116, 1
123047924, 576, 100
123069796, 576, 729
123091624, 16, 36
123111388, 4, 169
123131140, 900, 15129
123155040, 13689, 4761
123180016, 13689, 0
123201868, 31329, 6724
123226812, 0, 17408
123248632, 15876, 18225
123274652, 0, 2025
123295456, 2116, 6400
123319360, 13456, 64
123342236, 29241, 4096
123367228, 0, 576
123386976, 1028, 3721
123410912, 400, 225
123432736, 2401, 784
123455600, 18225, 324
123479520, 5776, 20736
123504488, 8281, 14400
123529444, 16641, 21316
123555448, 29929, 0
123577276, 7225, 14852
123602268, 16, 2153
123624108, 16641, 21904
123650100, 20900, 0
123671948, 4489, 0
123692740, 12544, 24336
123718736, 21609, 7364
123743696, 14400, 1764
123768660, 11881, 400
123792600, 81, 400
123813392, 3136, 2500
123837308, 1, 9409
123858100, 12996, 1225
123883060, 9216, 900
123905916, 14641, 5476
123930892, 3108, 441
123953764, 24649, 26896
123979744, 12996, 3721
124004756, 0, 29929
124026548, 30625, 3249
124051548, 16260, 1444
124076480, 0, 16129
124098316, 24964, 9025
124123288, 1521, 841
124146168, 0, 12769
124168000, 20449, 25600
124194044, 1089, 1089
124217940, 0, 9
124235624, 22080, 3025
124260564, 0, 2500
124281368, 18496, 2209
124306336, 0, 169
124326112, 0, 2809
124346912, 2304, 361
124369780, 1156, 441
124392656, 20164, 841
124416584, 20736, 1936
124441516, 27225, 1936
124466516, 0, 7744
124487292, 0, 16
124505992, 2916, 4096
124529940, 19881, 9025
124554888, 28713, 0
124576720, 21316, 0
124598588, 0, 625
124618320, 15129, 5625
124643280, 2704, 784
124666168, 529, 529
124688016, 0, 16
124706720, 14553, 8836
124731692, 0, 26244
124753544, 9604, 3633
124777440, 12305, 16129
124803432, 2064, 0
124824252, 13456, 0
124846096, 6288, 2916
124870016, 0, 8836
124890820, 0, 6889
124911600, 5476, 3025
124935552, 6724, 0
124956332, 0, 16900
124978168, 0, 4356
124998988, 900, 4
125018728, 21316, 1225
125043660, 0, 22801
125065528, 29729, 9409
125090476, 0, 10000
125112356, 0, 4900
125133124, 0, 23104
125154964, 0, 10816
125176796, 529, 2601
125199696, 144, 1369
125222572, 20736, 484
125246488, 16900, 529
125270440, 10404, 225
125294320, 22673, 4356
125319292, 21609, 3600
125344260, 0, 30276
125366092, 0, 0
125383784, 400, 64
125404600, 12769, 10609
125430588, 5329, 1936
125454520, 0, 3025
125475304, 0, 1296
125496080, 0, 4489
125516900, 25600, 1024
125541836, 7744, 9025
125565780, 900, 22801
125589696, 1296, 2809
125613604, 28224, 10201
125639588, 3025, 4624
125663536, 0, 5828
125684324, 0, 1545
125705136, 12864, 1764
125730092, 0, 225
125749856, 0, 0
125767520, 25600, 7396
125792480, 0, 0
125810192, 0, 0
125827848, 27225, 24025
125853856, 25600, 24025
125879844, 6889, 11664
125904808, 0, 0
125922504, 784, 29241
125946412, 29584, 0
125968248, 4761, 121
125991148, 9216, 2916
126015028, 15376, 20449
126041056, 0, 23865
126062900, 10201, 729
126086812, 26244, 6400
126111804, 400, 9
126131556, 2809, 3969
126155460, 23104, 7225
126180432, 0, 27556
126202280, 15625, 361
126226180, 441, 1296
126249068, 7569, 1681
126272996, 3600, 256
126295868, 676, 529
126317692, 3721, 36
126339548, 3844, 2304
126363444, 9025, 16641
126388432, 400, 0
126408180, 15120, 625
126432072, 7056, 8649
126456016, 2809, 3136
126479924, 784, 13924
126503844, 1225, 4356
126527772, 28900, 4624
126552744, 13328, 24025
126578728, 25921, 0
126600588, 27225, 0
126622392, 12305, 24336
126648408, 6825, 1764
126672336, 0, 19321
126694160, 15129, 16900
126720188, 0, 729
126739940, 0, 6400
126760720, 20736, 144
126784672, 1424, 8464
126808568, 0, 5929
126829364, 1089, 10404
126854320, 0, 10609
126876176, 0, 961
126895936, 9801, 4225
126919852, 841, 30276
126943768, 7396, 0
126964576, 1, 289
126984356, 196, 1225
127007236, 576, 4356
127030088, 0, 576
127049868, 0, 144
127069616, 3844, 484
127092500, 21025, 2809
127117476, 0, 11025
127139284, 0, 17161
127161128, 16384, 19600
127187156, 2025, 4900
127211048, 0, 3025
127231852, 9216, 11025
127256824, 0, 1156
127277612, 30625, 25600
127303596, 18496, 0
127325448, 2500, 0
127346256, 529, 0
127366024, 361, 18496
127389952, 0, 529
127409700, 0, 28561
127431544, 2916, 23716
127456500, 25281, 7396
127481456, 3136, 28900
127506392, 4356, 27225
127531352, 0, 0
127549056, 0, 31185
127570884, 3249, 20449
127595852, 1089, 0
127616660, 11025, 0
127638496, 18225, 5753
127663444, 0, 1225
127684248, 0, 8100
127705044, 6241, 4
127725868, 169, 1444
127748720, 0, 26244
127770556, 22201, 0
127792420, 19600, 1936
127817376, 5184, 49
127839200, 0, 100
127858988, 0, 5476
127879740, 13988, 11025
127905768, 26569, 4624
127930728, 7396, 0
127951524, 841, 17161
127975468, 14161, 961
127999396, 10816, 0
128021212, 10816, 22500
128047208, 0, 15376
128069048, 15876, 8836
128093996, 361, 324
128115868, 2025, 1600
128139788, 0, 4
128157456, 27556, 3481
128182420, 576, 1764
128205288, 6400, 784
128228164, 7396, 15376
128253116, 5476, 13456
128278096, 3108, 7225
128302000, 27225, 1444
128326984, 484, 0
128346752, 1, 9604
128367532, 10816, 2809
128392464, 1936, 0
128413300, 26896, 15617
128439308, 361, 30564
128463208, 1225, 5625
128487120, 0, 12769
128508964, 10609, 14400
128534980, 5329, 17924
128559920, 10404, 32761
128585956, 729, 4689
128608812, 0, 26273
128630656, 28561, 0
128652504, 729, 13456
128676416, 16, 10000
128699288, 0, 169
128719072, 3633, 26244
128743976, 1225, 0
128764828, 26880, 0
128786656, 21489, 16384
128812640, 1521, 3600
128836548, 29945, 0
128858408, 8836, 21609
128883376, 0, 3721
128904148, 5776, 8281
128928096, 7396, 0
128948896, 1225, 8649
128972796, 625, 29929
128996724, 0, 49
129015440, 21316, 23104
129041472, 100, 7056
129064336, 0, 30976
129086180, 0, 400
129105940, 10609, 7744
129130912, 6241, 676
129153780, 28900, 22801
129179772, 26569, 17689
129205768, 26569, 31684
129231768, 7921, 15376
129256720, 0, 6825
129277540, 4489, 0
129298340, 4489, 3025
129322248, 676, 6400
129345124, 0, 13924
129366972, 18769, 900
129390880, 196, 0
129410648, 0, 26896
129432480, 10640, 3364
129457464, 0, 11025
129479276, 0, 4624
129500080, 729, 256
129521952, 8464, 1444
129545860, 225, 24336
129569776, 18496, 24649
129595768, 441, 0
129615528, 841, 0
129635296, 10404, 1225
129660256, 16900, 2916
129685204, 32400, 0
129707076, 4, 18225
129728896, 8100, 1849
129752844, 0, 9801
129773596, 23268, 400
129797524, 27889, 256
129821452, 3600, 8836
129845380, 28713, 16641
129871364, 0, 26244
129893216, 18496, 2304
129918176, 484, 4761
129941044, 9540, 16129
129966004, 5625, 30276
129990972, 3481, 24649
130015920, 18225, 32041
130041952, 3025, 0
130062736, 0, 144
130082488, 8836, 0
130103272, 13456, 0
130125128, 19600, 10000
130151148, 121, 1764
130174008, 11664, 2601
130198988, 900, 21025
130222896, 7364, 10609
130247856, 19044, 15129
130273840, 0, 27889
130295680, 11664, 21904
130321696, 1600, 11664
130346632, 19881, 784
130370544, 12996, 6288
130395520, 0, 361
130415296, 29241, 0
130437160, 1024, 1369
130461072, 5329, 7396
130484968, 3481, 2916
130508888, 13225, 4356
130533856, 0, 0
130551520, 20313, 0
130573396, 2585, 3721
130597284, 27556, 4900
130622256, 12100, 25065
130648256, 361, 0
130668024, 0, 10000
130689848, 0, 64
130708576, 0, 21025
130730404, 18564, 7569
130755380, 0, 28900
130777212, 18769, 31684
130803216, 0, 23409
130825056, 12996, 9216
130850016, 729, 23409
130873944, 6288, 9
130894720, 19321, 5329
130919716, 2116, 12769
130944644, 0, 2304
130965440, 12996, 21904
130991456, 0, 0
131009140, 27889, 26880
131035140, 1681, 0
131055940, 100, 11025
131079868, 6400, 16641
131104836, 28224, 121
131128724, 0, 15625
131150584, 12544, 25
131173464, 3721, 7569
131197344, 0, 0
131215072, 8993, 0
131235836, 0, 0
131253552, 2209, 0
131274320, 169, 0
131294100, 1936, 21904
131319064, 17689, 26896
131345064, 361, 29584
131368984, 0, 6241
131389784, 15376, 4900
131414724, 16384, 12100
131440736, 0, 27489
131462584, 2401, 29584
