Timestamp (micros),Sensor1 (mV),Sensor2 (mV)
1, 4
158962272, 0, 0
158979944, 0, 0
158997632, 0, 0
159015320, 1, 0
159032996, 0, 0
159050664, 0, 0
159068356, 1,44600, 1, 4
158962272, 0, 0
158979944, 0, 0
158997632, 0, 0
159015320, 1, 0
159032996, 0, 0
159050664, 0, 0
159068356, 1,51612, 10816, 9025
53868, 9801, 3600
56104, 625, 121
58236, 81, 144
60672, 400, 361
78364, 324, 121
96032, 1, 49
110576, 169, 169
129320, 64, 0
144924, 1, 49
160520, 64, 1
176112, 1, 25
191712, 64, 25
208348, 9, 4
222916, 1, 49
238512, 9, 1
253084, 4, 4
267632, 16, 4
283228, 9, 0
297796, 4, 9
312360, 16, 0
327960, 1, 0
342516, 1, 1
357068, 4, 0
371624, 4, 0
386196, 0, 4
400768, 0, 0
415316, 0, 9
429876, 4, 1
444448, 1, 1
459004, 1, 16
474596, 0, 1
489144, 25, 16
505792, 16, 9
521408, 4, 1
535956, 49, 4
551556, 25, 9
567156, 1, 9
581712, 0, 0
596284, 25, 1
611880, 9, 0
626440, 36, 1
642032, 64, 0
657632, 9, 0
672192, 1, 0
686748, 1, 0
701308, 9, 4
715872, 4, 25
731484, 9, 36
747084, 16, 36
763716, 1, 9
778276, 0, 1
792836, 4, 1
807384, 0, 0
821956, 9, 4
836512, 9, 9
851076, 9, 9
865640, 4, 81
881232, 4, 81
896832, 49, 16
913480, 25, 1
929080, 36, 1
944684, 196, 121
963396, 100, 225
982120, 25, 0
997716, 25, 100
1015388, 361, 0
1033068, 2304, 36
1052832, 1849, 64
1072592, 400, 16
1091308, 1936, 121
1112116, 400, 9
1129768, 1028, 289
1150524, 29584, 14641
1174488, 7569, 8993
1196332, 3844, 29241
1219220, 100, 400
1238972, 324, 3025
1259780, 961, 4624
1280568, 81, 16129
1301368, 529, 144
1321120, 784, 1681
1341928, 784, 25
1360664, 196, 900
1380424, 1089, 529
1401220, 36, 100
1419928, 484, 625
1439684, 324, 25
1458420, 49, 289
1477148, 361, 196
1496904, 0, 121
1514596, 16129, 15129
1538484, 0, 0
1554088, 26273, 19617
1578004, 0, 3201
1596724, 5184, 0
1615452, 0, 100
1633128, 676, 28224
1654956, 21904, 31684
1678864, 16900, 30976
1702788, 5041, 0
1721528, 9604, 0
1740244, 2500, 15376
1763104, 7921, 0
1781852, 36, 0
1798496, 10404, 8464
1821360, 1764, 2025
1843168, 784, 0
1860892, 1369, 17924
1883776, 12996, 14553
1907676, 16641, 2304
1930568, 576, 16129
1952416, 169, 100
1972172, 16, 484
1990900, 400, 100
2010660, 1, 225
2028328, 441, 484
2048104, 225, 4
2065788, 81, 225
2084496, 225, 81
2103228, 0, 0
2118808, 0, 20449
2138568, 0, 4761
2157292, 64, 1
2173944, 5625, 484
2194732, 29584, 2116
2217616, 8100, 289
2238416, 225, 9
2256108, 169, 169
2275868, 64, 4
2292492, 0, 0
2308088, 19321, 0
2327856, 4489, 25
2347616, 1, 400
2365304, 225, 1
2382952, 0, 1444
2401688, 0, 26244
2421452, 5041, 0
2440148, 8464, 28224
2463056, 23409, 7569
2485932, 10816, 30276
2509860, 324, 25281
2531696, 5929, 225
2552504, 144, 3025
2573288, 0, 14161
2593060, 0, 22801
2612828, 16900, 100
2634636, 0, 676
2652352, 32433, 23409
2676248, 14852, 0
2695996, 18496, 13225
2719940, 2209, 121
2740752, 0, 324
2758412, 15617, 6724
2781296, 27889, 6889
2804172, 0, 0
2819740, 19472, 0
2839512, 12769, 26569
2863452, 0, 17924
2883208, 6889, 0
2901940, 4356, 24336
2924808, 121, 23865
2946652, 625, 8464
2967444, 3721, 64
2987220, 196, 81
3005936, 169, 144
3025704, 25, 1
3042316, 0, 225
3060036, 14089, 17161
3083912, 32761, 31185
3107864, 6084, 28561
3130740, 2916, 81
3150500, 144, 1225
3171304, 676, 1369
3192080, 0, 26896
3211832, 0, 28900
3231608, 15129, 7569
3254492, 13924, 24649
3278412, 1, 8464
3297140, 841, 4
3314820, 49, 196
3333544, 64, 1
3350172, 0, 0
3365764, 27225, 0
3385544, 5184, 1
3404260, 289, 0
3421940, 0, 4
3437524, 0, 0
3453136, 24649, 0
3472892, 5184, 4
3491608, 81, 64
3509292, 0, 0
3524880, 25600, 0
3544652, 6241, 81
3564420, 25, 49
3582108, 1, 49
3598720, 0, 1024
3617464, 24164, 18496
3641368, 0, 0
3656972, 20736, 24164
3680900, 28100, 4993
3703752, 7569, 0
3722504, 28224, 121
3744328, 20736, 529
3766160, 1936, 1225
3788016, 4, 9
3803620, 9, 9
3819216, 17161, 0
3838960, 121, 0
3856644, 20449, 5041
3879508, 400, 0
3897216, 1600, 15617
3920100, 15625, 0
3939864, 11236, 49
3960628, 15625, 15376
3984572, 0, 6084
4003288, 29241, 121
4025144, 441, 49
4043856, 729, 1764
4064644, 1600, 784
4085444, 36, 196
4104172, 784, 841
4123948, 400, 9
4141612, 121, 484
4161368, 441, 225
4181140, 4, 100
4198824, 256, 324
4218560, 27556, 169
4240412, 17408, 1936
4263284, 10816, 3844
4286176, 9, 25
4302816, 1, 49
4319468, 144, 11449
4341280, 3969, 0
4360012, 15129, 6400
4382912, 4356, 484
4403704, 0, 100
4421380, 16, 0
4437988, 0, 784
4455672, 0, 25281
4475452, 36, 26244
4496244, 3600, 1
4514976, 9, 144
4532652, 0, 144
4550336, 400, 529
4570092, 324, 64
4588828, 8100, 9
4607512, 4624, 0
4626240, 6724, 0
4644976, 5929, 196
4665780, 49, 225
4684500, 0, 225
4702168, 484, 576
4721940, 289, 25
4740664, 36, 169
4759380, 256, 121
4779140, 9, 25
4795768, 0, 25921
4815544, 21489, 8464
4838392, 400, 1028
4859220, 2304, 0
4877944, 3721, 32761
4900804, 289, 0
4918512, 196, 21609
4940340, 196, 289
4960100, 784, 484
4979856, 784, 1
4997548, 25, 15625
5018304, 24025, 0
5038096, 31808, 784
5059928, 24336, 2601
5082816, 64, 64
5100496, 81, 81
5118204, 16, 0
5134804, 0, 26896
5154560, 0, 5776
5173308, 16, 100
5192028, 25, 0
5208656, 36, 36
5226332, 0, 0
5241920, 22801, 0
5261700, 5329, 36
5281460, 16, 144
5300168, 25, 16
5317868, 64, 144
5336556, 0, 784
5354224, 30625, 22201
5378168, 0, 31337
5397924, 8464, 0
5416668, 3481, 361
5437452, 14641, 144
5459292, 0, 5929
5477996, 0, 2704
5496712, 19044, 64
5517532, 1600, 1089
5539376, 1521, 1
5558096, 441, 625
5577864, 289, 36
5596580, 9, 100
5614248, 0, 0
5629844, 24649, 0
5649620, 3721, 49
5669392, 225, 64
5688092, 100, 16
5706828, 4, 9
5722420, 0, 0
5738000, 25921, 0
5757772, 4900, 9
5776476, 0, 289
5794152, 29241, 24025
5818080, 0, 21809
5837856, 6889, 0
5856580, 3600, 169
5877376, 25, 841
5896080, 19881, 225
5917920, 32761, 1369
5940804, 4096, 3600
5962652, 324, 144
5982416, 25, 121
6001132, 441, 529
6020892, 324, 25
6039624, 36, 225
6058340, 289, 169
6078100, 9, 16
6094712, 0, 64
6111352, 26896, 22801
6135296, 0, 29584
6155012, 31185, 14884
6178972, 0, 8649
6197688, 0, 1936
6216416, 1936, 1681
6238272, 1, 361
6255936, 6241, 1764
6277768, 0, 1521
6296484, 9409, 144
6317308, 784, 196
6337056, 36, 196
6355776, 256, 144
6375544, 9, 49
6392172, 0, 13689
6411924, 23716, 2704
6434804, 0, 23865
6454596, 13456, 2308
6477448, 6561, 0
6496152, 4900, 13924
6519060, 9216, 100
6539860, 9, 4
6555452, 289, 841
6575216, 784, 441
6594972, 36, 49
6612632, 0, 9
6628232, 26244, 22801
6652168, 1, 21609
6671932, 6241, 169
6692740, 22801, 36
6713556, 3364, 9
6732264, 30564, 1
6751992, 23104, 16260
6775932, 0, 29241
6795684, 0, 7225
6814408, 784, 121
6834160, 484, 1764
6854976, 0, 12996
6874724, 10609, 3844
6897608, 441, 9
6915292, 3136, 169
6936088, 17161, 1156
6958968, 4624, 100
6979780, 144, 4
6997460, 81, 121
7016180, 49, 4
7032796, 23104, 36
7053620, 2585, 5776
7075432, 16900, 0
7095200, 2916, 13456
7118100, 1024, 100
7138904, 49, 676
7157620, 484, 121
7177388, 1, 196
7195056, 441, 400
7214816, 144, 0
7232504, 100, 11664
7254328, 729, 0
7272040, 2025, 0
7290724, 3633, 19321
7313608, 6793, 0
7332320, 10304, 27332
7356244, 18564, 0
7376004, 7921, 0
7394736, 1849, 361
7415532, 576, 1
7433240, 81, 1849
7453000, 484, 2916
7473768, 196, 3136
7494568, 169, 3364
7515392, 169, 9
7533052, 20164, 4
7552800, 30276, 1764
7575692, 529, 1156
7596492, 1764, 961
7617292, 81, 1
7633940, 64, 256
7652664, 441, 256
7672420, 64, 1
7689052, 0, 0
7704644, 17161, 0
7724416, 6889, 121
7745224, 289, 4
7762900, 1, 0
7778488, 0, 0
7794084, 24025, 0
7813852, 5184, 16
7833620, 36, 100
7852348, 16, 9
7868972, 0, 0
7884568, 26896, 0
7904328, 5184, 1
7923064, 225, 9
7940752, 0, 2401
7959428, 30976, 12321
7983376, 0, 5828
8002076, 9025, 0
8020824, 11193, 1156
8043696, 21809, 12769
8067608, 0, 2916
8086340, 289, 36
8105060, 1089, 576
8125856, 81, 36
8143532, 484, 784
8163280, 576, 144
8183064, 4, 196
8200736, 17689, 3364
8223604, 19145, 10609
8247540, 14884, 3025
8270440, 0, 4761
8289144, 0, 20736
8308908, 0, 1444
8327600, 19321, 2916
8350512, 0, 3481
8369212, 2153, 21025
8392092, 1424, 32433
8414968, 13456, 0
8434744, 6241, 25
8454512, 49, 64
8472176, 0, 100
8489824, 0, 1225
8508596, 25744, 18496
8532492, 0, 0
8548084, 21904, 21809
8572008, 27489, 10417
8595920, 7396, 0
8614648, 9409, 0
8633380, 256, 1
8651068, 49, 100
8669796, 25, 36
8687460, 17689, 0
8707204, 16, 0
8723852, 17161, 529
8745700, 4, 144
8763372, 9, 4
8778996, 0, 6241
8797684, 30976, 3721
8820560, 0, 0
8836176, 0, 21481
8855928, 7744, 0
8874648, 6241, 361
8895444, 961, 64
8914180, 16, 0
8930828, 36, 64
8948500, 12100, 0
8968264, 14400, 0
8988008, 16129, 784
9009844, 0, 13988
9029580, 24649, 0
9049380, 7921, 81
9069124, 23104, 529
9090960, 0, 1849
9109684, 12769, 4356
9132580, 25, 25
9150248, 4, 25
9166924, 100, 0
9184568, 0, 25921
9204328, 0, 4356
9223060, 1, 144
9240752, 9604, 256
9261520, 0, 1521
9280256, 7744, 784
9301068, 121, 9
9318756, 324, 49
9337460, 26896, 25281
9361352, 0, 0
9376968, 0, 0
9392564, 9604, 0
9411292, 8281, 0
9430020, 324, 1
9447704, 1, 100
9465364, 0, 25921
9485116, 24336, 10201
9509044, 0, 19145
9528804, 24964, 0
9548568, 729, 9
9566276, 100, 0
9583920, 0, 28224
9603680, 0, 3969
9622416, 121, 576
9642188, 1, 9
9657780, 0, 676
9675444, 32041, 23104
9699372, 0, 30532
9719128, 9025, 0
9737860, 3844, 256
9758640, 144, 441
9778408, 729, 576
9798168, 256, 4
9815848, 0, 0
9831448, 30276, 0
9851224, 5329, 25
9870980, 484, 16
9889688, 16, 4
9906340, 0, 15129
9926100, 8804, 3481
9947912, 0, 0
9963524, 21025, 0
9983296, 1296, 29241
10006184, 3633, 25921
10030072, 31329, 4489
10054012, 441, 7056
10075872, 324, 1156
10097684, 0, 16641
10118484, 25921, 0
10139288, 5329, 729
10161120, 144, 324
10181940, 25, 121
10201696, 361, 361
10222496, 225, 16
10242268, 36, 121
10262028, 225, 144
10282820, 9, 25
10300500, 100, 144
10321312, 64, 1
10338984, 16, 49
10357688, 81, 36
10376420, 4, 9
10393052, 0, 0
10409680, 24964, 0
10430500, 4761, 4
10450268, 225, 25
10470016, 25, 0
10487692, 0, 16
10505376, 1600, 121
10527208, 8649, 256
10549064, 1444, 169
10570908, 49, 4
10588584, 4, 4
10605224, 225, 1
10623936, 9604, 0
10643676, 324, 0
10662412, 24336, 21489
10687360, 18225, 2585
10711288, 10816, 29241
10736252, 3108, 0
10756008, 26244, 31808
10780968, 3481, 11449
10804884, 27889, 10640
10829852, 13924, 0
10850660, 4096, 1
10870420, 1, 576
10889136, 441, 100
10909948, 0, 121
10928664, 324, 324
10949452, 121, 4
10968184, 64, 144
10987940, 144, 49
11007700, 0, 36
11025360, 100, 100
11046188, 729, 9
11064900, 3249, 1849
11087764, 1681, 12100
11111700, 484, 2809
11133548, 169, 0
11152244, 289, 0
11170968, 3969, 19321
11194900, 11748, 0
11215680, 24964, 0
11236488, 5329, 100
11258328, 4, 529
11277048, 256, 4
11295788, 49, 256
11315556, 225, 169
11336348, 6724, 16
11357112, 23716, 2025
11381072, 0, 1444
11400828, 6241, 324
11422672, 2601, 144
11444472, 9025, 0
11464212, 12769, 22801
11489208, 1024, 0
11508972, 3364, 0
11528712, 5041, 12996
11552660, 289, 2585
11574508, 5476, 1521
11597384, 64, 5476
11618172, 1296, 11664
11642084, 2704, 7396
11664964, 2209, 4356
11687832, 6400, 2401
11710748, 81, 1681
11731536, 169, 100
11752328, 36, 7921
11773132, 3481, 10816
11797064, 2704, 4225
11819928, 14884, 25600
11844916, 100, 16
11864652, 400, 4096
11886492, 9, 196
11905236, 529, 9
11923932, 1024, 16
11944748, 1, 3844
11964504, 144, 4761
11986336, 225, 0
12005060, 25, 961
12024812, 484, 1
12043536, 0, 361
12062264, 0, 2401
12082028, 1, 3721
12101784, 225, 169
12122580, 0, 100
12141308, 1369, 361
12163132, 841, 4624
12184980, 441, 5476
12206820, 1369, 1444
12229696, 400, 1936
12251552, 900, 64
12271308, 3364, 729
12293160, 3249, 64
12313940, 1296, 196
12335780, 529, 400
12356576, 289, 1156
12378428, 841, 4624
12400272, 49, 6561
12421052, 324, 3025
12442900, 256, 17161
12465768, 676, 24649
12488664, 841, 8464
12510524, 36, 121
12530272, 100, 0
12548980, 64, 529
12568744, 1156, 441
12590580, 2601, 625
12612428, 729, 169
12633232, 0, 361
12651944, 1, 25
12669636, 729, 4
12688340, 4, 4
12705000, 361, 25
12724748, 64, 144
12744512, 324, 784
12765320, 4, 4
12781940, 144, 676
12802744, 100, 841
12823536, 225, 196
12844356, 25, 9
12862028, 81, 49
12880736, 0, 324
12899468, 25, 64
12918184, 1, 256
12936908, 225, 36
12956680, 1, 256
12975388, 289, 16
12995140, 49, 81
13013844, 324, 1089
13035700, 81, 36
13054432, 225, 121
13075236, 1, 1
13091868, 324, 2025
13113728, 169, 625
13134508, 121, 81
13154264, 9, 3136
13174036, 361, 4761
13195856, 4, 9
13212500, 841, 625
13233308, 784, 25
13253060, 324, 36
13272828, 0, 64
13290512, 49, 64
13309240, 324, 225
13330032, 1296, 324
13351860, 529, 36
13371632, 169, 196
13392424, 289, 576
13413236, 36, 400
13432992, 1, 36
13450676, 9, 25
13468352, 0, 64
13486036, 16, 256
13505792, 529, 841
13526600, 784, 1296
13548420, 484, 2601
13570260, 64, 1156
13591076, 225, 196
13611872, 484, 49
13631632, 64, 100
13651384, 36, 1
13669064, 100, 196
13689872, 36, 121
13709636, 64, 25
13728340, 225, 0
13747072, 100, 121
13767872, 81, 64
13786596, 225, 36
13806356, 484, 4
13825076, 784, 196
13845880, 441, 324
13866680, 64, 169
13886432, 36, 144
13906196, 196, 81
13925952, 169, 289
13946760, 49, 64
13965484, 64, 289
13985224, 1089, 121
14007056, 2500, 1600
14029948, 729, 2209
14051792, 0, 400
14070504, 0, 100
14089248, 100, 1
14107956, 36, 144
14127712, 36, 121
14147460, 121, 36
14167228, 49, 25
14185952, 16, 64
14204664, 49, 16
14223396, 3025, 121
14245236, 5776, 625
14267080, 1681, 1
14286816, 225, 81
14306596, 289, 1
14325308, 225, 16
14345068, 1681, 81
14365876, 36, 25
14384596, 484, 169
14405392, 676, 676
14426192, 64, 196
14445956, 144, 9
14464672, 25, 81
14483380, 36, 36
14502120, 16, 4
14519792, 576, 100
14540592, 256, 9
14559316, 25, 81
14578048, 25, 121
14597796, 0, 4
14614424, 529, 256
14635232, 576, 289
14656036, 196, 25
14675788, 441, 144
14696596, 36, 49
14715308, 0, 100
14734036, 256, 1
14752740, 169, 4
14771480, 0, 4
14788124, 4, 25
14805796, 0, 36
14823480, 49, 64
14842204, 144, 4
14860928, 16, 169
14880676, 36, 625
14900436, 144, 1156
14922272, 81, 841
14942028, 100, 256
14962840, 576, 324
14983636, 225, 25
15003396, 25, 16
15022120, 49, 576
15041876, 16, 1681
15062676, 9, 324
15081392, 144, 1
15100116, 100, 121
15120924, 1, 225
15139628, 64, 196
15159404, 441, 256
15180200, 144, 36
15199960, 25, 121
15219708, 1, 144
15238440, 64, 25
15257148, 225, 25
15276920, 324, 16
15296680, 36, 0
15314364, 225, 4
15333068, 169, 16
15352828, 81, 0
15370528, 324, 0
15389236, 484, 36
15408992, 121, 25
15428764, 4, 36
15446444, 169, 9
15465144, 144, 0
15483868, 4, 25
15501548, 36, 169
15521320, 361, 64
15541068, 324, 36
15560840, 0, 100
15579560, 169, 289
15600352, 784, 225
15621156, 900, 25
15640912, 196, 196
15661716, 49, 25
15680428, 16, 9
15698124, 64, 0
15715792, 36, 4
15733472, 36, 9
15751140, 196, 16
15770912, 225, 64
15790672, 9, 36
15808344, 49, 16
15827084, 0, 9
15843728, 9, 1
15860352, 4, 1
15876996, 144, 289
15897796, 64, 169
15917556, 196, 1
15936272, 256, 1
15955000, 49, 100
15974760, 49, 100
15994516, 9, 16
16012192, 36, 1
16029872, 0, 169
16048592, 25, 400
16068348, 25, 361
16088116, 169, 256
16108912, 256, 225
16129712, 169, 225
16150504, 576, 25
16170264, 36, 256
16190028, 1369, 25
16210832, 1024, 64
16231636, 1, 4
16248268, 784, 144
16269064, 400, 16
16288840, 256, 4
16307556, 841, 36
16327316, 144, 4
16346036, 0, 9
16362680, 64, 81
16381392, 4, 100
16400116, 36, 0
16417800, 9, 1
16434444, 121, 1
16453172, 64, 25
16471872, 0, 64
16489560, 9, 0
16506192, 16, 256
16525952, 0, 196
16544668, 49, 1
16562364, 81, 0
16580032, 225, 49
16599792, 0, 0
16616424, 289, 9
16635156, 100, 16
16654920, 49, 0
16672592, 4, 0
16689240, 4, 9
16705880, 4, 169
16724596, 49, 196
16744344, 0, 49
16762048, 36, 4
16779704, 49, 64
16798436, 16, 25
16817144, 144, 25
16836924, 4, 4
16853552, 25, 0
16871228, 9, 16
16888924, 16, 0
16906596, 81, 36
16925316, 36, 256
16945068, 9, 100
16963804, 9, 36
16981476, 49, 100
17001232, 25, 64
17019960, 16, 9
17037652, 0, 49
17055320, 9, 121
17074044, 49, 36
17092760, 25, 9
17110440, 1, 4
17127072, 100, 196
17147868, 81, 441
17167636, 1, 256
17186360, 1, 0
17202996, 9, 1
17219640, 4, 0
17236284, 25, 144
17256040, 9, 25
17273712, 4, 169
17292440, 9, 49
17310128, 9, 16
17327784, 36, 256
17347532, 1600, 121
17369396, 1089, 225
17391232, 289, 4
17409952, 169, 100
17430760, 36, 16
17449468, 25, 9
17467152, 576, 9
17485880, 1521, 81
17506684, 1089, 441
17528508, 1, 169
17547224, 121, 1
17565960, 49, 16
17584684, 49, 0
17602352, 9, 25
17620040, 4, 1
17636688, 25, 49
17655392, 196, 25
17675152, 324, 25
17694920, 324, 25
17714672, 0, 4
17731312, 121, 0
17750040, 0, 16
17767720, 4, 0
17784356, 225, 81
17804112, 81, 64
17822844, 1, 4
17839480, 16, 4
17857156, 121, 49
17876908, 196, 1
17895652, 361, 9
17914356, 289, 81
17934124, 1, 196
17952844, 64, 169
17972600, 121, 16
17992356, 256, 16
18012112, 64, 25
18030852, 4, 9
18047484, 9, 1
18064124, 25, 1
18081800, 9, 49
18099484, 0, 1
18116124, 9, 16
18133804, 256, 441
18154600, 100, 961
18175400, 16, 400
18195160, 1, 49
18212824, 64, 0
18230516, 49, 16
18249248, 1, 4
18265880, 16, 9
18283560, 36, 64
18302276, 0, 36
18319952, 16, 0
18337636, 0, 49
18355328, 121, 25
18375080, 64, 16
18393804, 16, 1
18411472, 0, 9
18428124, 25, 0
18445788, 144, 49
18465556, 16, 121
18485312, 9, 169
18504032, 324, 1
18522748, 16, 9
18540436, 196, 1
18559164, 25, 0
18576832, 4, 36
18594516, 9, 1
18611156, 36, 25
18629888, 36, 81
18648600, 0, 0
18665240, 1, 0
18681876, 1, 64
18699560, 4, 25
18717232, 4, 9
18733872, 4, 169
18752600, 25, 36
18771316, 9, 9
18787944, 16, 25
18806688, 1, 1
18823324, 16, 0
18841008, 1, 36
18858688, 16, 25
18877396, 1, 1
18894044, 64, 25
18912756, 36, 0
18930440, 4, 49
18948116, 16, 49
18966840, 16, 49
18985564, 9, 1
19002196, 1, 64
19019884, 0, 25
19037560, 4, 4
19054196, 36, 25
19072916, 289, 16
19092688, 144, 64
19112444, 16, 4
19130112, 1, 100
19148840, 4, 9
19165476, 64, 36
19184200, 0, 1
19200844, 169, 25
19220608, 36, 9
19238280, 16, 0
19255960, 25, 4
19273628, 36, 144
19293396, 100, 256
19314208, 144, 9
19332912, 729, 64
19352672, 361, 81
19372440, 0, 4
19389080, 196, 1
19407784, 100, 0
19426520, 25, 4
19444196, 9, 81
19461868, 121, 4
19480596, 81, 100
19500364, 25, 25
19519076, 4, 0
19535724, 25, 1
19553400, 196, 81
19573168, 1, 16
19590840, 121, 49
19610584, 0, 121
19629320, 0, 25
19647004, 9, 0
19663636, 36, 81
19682364, 9, 64
19700036, 100, 25
19719800, 81, 36
19738512, 9, 25
19756200, 0, 0
19772844, 9, 49
19790520, 64, 4
19808192, 16, 16
19826916, 4, 0
19843560, 81, 1
19861228, 256, 0
19879956, 64, 16
19898676, 4, 16
19916352, 0, 4
19932996, 36, 9
19950672, 81, 9
19968356, 25, 4
19986040, 25, 1
20003728, 0, 1
20020356, 9, 100
20039080, 1, 49
20056756, 16, 1
20074432, 0, 0
20091096, 1, 49
20108760, 4, 49
20126428, 16, 1
20144108, 0, 0
20160748, 16, 289
20180524, 36, 324
20200272, 0, 64
20217972, 4, 576
20236684, 81, 169
20256432, 4, 9
20273064, 36, 0
20290756, 4, 16
20308444, 25, 4
20326108, 0, 25
20343792, 25, 0
20361480, 64, 0
20379156, 400, 81
20398924, 64, 121
20418684, 36, 4
20436364, 81, 9
20454044, 36, 16
20472748, 4, 1
20489400, 4, 81
20507068, 49, 25
20525800, 100, 25
20545560, 4, 16
20563236, 256, 4
20581948, 1296, 4
20601712, 324, 4
20620432, 0, 0
20637084, 9, 9
20653724, 0, 1
20670352, 49, 0
20688040, 9, 4
20704680, 4, 9
20721320, 36, 0
20738984, 49, 9
20756680, 121, 16
20776432, 9, 4
20793076, 16, 1
20810756, 16, 49
20829476, 256, 0
20848200, 484, 25
20867956, 16, 4
20885656, 4, 1
20902284, 4, 1
20918904, 16, 25
20937624, 49, 16
20956352, 9, 16
20974032, 1, 25
20991716, 4, 1
21008348, 0, 4
21025000, 4, 16
21042672, 64, 9
21060352, 81, 4
21078036, 100, 0
21096768, 49, 9
21114424, 121, 36
21134196, 400, 36
21153964, 16, 25
21172672, 0, 16
21190356, 9, 36
21208028, 225, 4
21226748, 121, 16
21246508, 36, 0
21264204, 1, 0
21280848, 36, 1
21298516, 144, 121
21319312, 400, 0
21338020, 441, 484
21358832, 0, 576
21377556, 484, 625
21398348, 324, 361
21419160, 289, 64
21438908, 1681, 2916
21461800, 3249, 3364
21484672, 676, 0
21503384, 1444, 729
21525224, 1764, 289
21547084, 3600, 0
21566812, 0, 529
21585504, 25600, 23409
21610468, 6400, 2704
21633376, 6400, 6288
21656248, 4096, 19044
21680188, 0, 1764
21699936, 28928, 3844
21723836, 15876, 0
21744652, 0, 21609
21765452, 0, 7396
21785208, 400, 441
21805996, 2401, 121
21827860, 196, 324
21848656, 784, 529
21869452, 100, 16
21889216, 256, 400
21910024, 225, 49
21929780, 16, 144
21949556, 225, 169
21970336, 25, 9
21988020, 81, 144
22007776, 121, 16
22027548, 4, 49
22045216, 100, 49
22064984, 16, 4
22082664, 49, 49
22101384, 3136, 0
22121132, 1369, 0
22140892, 0, 5625
22160660, 13456, 9025
22184576, 169, 513
22205360, 9, 28561
22226184, 5476, 1
22245940, 81, 16
22264652, 289, 676
22285452, 625, 324
22306256, 49, 16
22324976, 169, 196
22345780, 100, 9
22364504, 4, 81
22382168, 1225, 121
22404004, 7396, 441
22425864, 1936, 36
22446660, 64, 4
22464336, 25, 49
22483056, 16, 4
22500708, 0, 225
22519468, 12569, 16129
22544404, 0, 0
22561032, 7744, 0
22580812, 0, 2401
22600584, 18769, 2601
22624508, 1296, 3969
22647368, 729, 2025
22669204, 144, 225
22690032, 0, 0
22706644, 0, 0
22723280, 8464, 0
22743056, 4225, 625
22764896, 841, 9
22783620, 169, 256
22804416, 289, 100
22825228, 4, 100
22843936, 196, 196
22864736, 64, 0
22882428, 36, 121
22902180, 121, 36
22921944, 1, 25
22939628, 100, 0
22958352, 256, 30976
22981204, 1764, 0
23000964, 361, 25921
23023864, 6724, 4
23043620, 1, 9
23060256, 729, 900
23081052, 6400, 100
23102896, 676, 9
23121620, 1156, 64
23142428, 169, 25
23162188, 4, 49
23179856, 64, 36
23198596, 0, 0
23215188, 0, 10304
23236004, 0, 0
23252644, 6084, 21904
23276564, 4624, 3025
23299468, 0, 11236
23320252, 26896, 25281
23345220, 3249, 49
23366032, 256, 324
23386824, 64, 16
23405532, 144, 289
23426336, 225, 64
23446104, 1, 49
23463776, 121, 100
23484588, 25, 1
23502256, 49, 100
23522020, 81, 16
23540748, 1, 25
23558408, 32400, 121
23581300, 31808, 4225
23605188, 16641, 4225
23629132, 0, 0
23645772, 11812, 20548
23670724, 26880, 7696
23694652, 3136, 0
23714412, 6400, 36
23735208, 100, 196
23756020, 121, 16
23775784, 1089, 100
23797596, 5184, 0
23817392, 17689, 0
23838176, 784, 0
23856888, 0, 12864
23877708, 0, 27889
23898500, 1296, 1
23918244, 4225, 0
23937996, 961, 32400
23960904, 1225, 9
23980656, 1764, 256
24002488, 4, 100
24021216, 256, 196
24042004, 64, 0
24059704, 49, 121
24079464, 121, 36
24099224, 0, 16
24116916, 49, 0
24134560, 0, 24025
24155368, 0, 5929
24175144, 81, 9
24192816, 81, 9
24210504, 36, 100
24230264, 144, 100
24251052, 16, 4
24268736, 25, 36
24287468, 0, 17161
24308256, 8804, 12305
24332164, 16384, 21904
24357152, 0, 4225
24376896, 0, 15376
24397696, 441, 16129
24420596, 784, 2116
24442408, 900, 7056
24464252, 2209, 49
24485060, 36, 256
24504808, 841, 1156
24526664, 729, 0
24545372, 529, 30532
24568244, 22801, 12569
24593196, 5184, 0
24612980, 6400, 0
24632728, 1, 484
24651448, 289, 36
24671212, 1, 100
24689940, 196, 144
24710740, 49, 0
24728420, 36, 100
24748188, 1849, 4
24767932, 3600, 25
24788748, 256, 361
24809552, 9, 0
24826168, 0, 0
24842800, 21316, 0
24863624, 4489, 9
24883392, 16, 225
24903140, 81, 0
24920820, 25, 144
24940576, 169, 100
24961380, 9, 4
24978016, 4225, 9
24997768, 9604, 576
25019616, 1764, 676
25041456, 25, 25
25060184, 25, 1
25077876, 49, 961
25097640, 1369, 3481
25120484, 1849, 0
25140248, 676, 14884
25163148, 1936, 1
25182904, 9, 196
25201616, 49, 9
25219304, 100, 225
25240092, 196, 81
25259864, 1, 25
25277560, 2116, 0
25297288, 1444, 32144
25321200, 3136, 0
25340976, 4489, 121
25362824, 1, 361
25381540, 169, 1
25400248, 49, 225
25420016, 361, 196
25440808, 36, 4
25458512, 100, 144
25479304, 100, 16
25499056, 1, 49
25516744, 100, 49
25536496, 4, 4
25553152, 7744, 0
25572880, 7056, 0
25592636, 28900, 31684
25617600, 0, 1369
25637372, 0, 14400
25658184, 729, 144
25678992, 36, 4
25696672, 13689, 256
25719528, 0, 2116
25739292, 8649, 1444
25762176, 25, 0
25779856, 81, 16
25798576, 4, 36
25816276, 100, 100
25837084, 36, 576
25856824, 7744, 3600
25879696, 9604, 4356
25902592, 400, 4
25921308, 196, 169
25942128, 0, 1
25958760, 0, 1
25975396, 4, 9
25992008, 10404, 13924
26016980, 17408, 27489
26041928, 15876, 21609
26066884, 6288, 8993
26089768, 22500, 0
26110572, 3721, 16
26131372, 81, 1849
26152168, 529, 2601
26174008, 144, 121
26194820, 0, 100
26213504, 21809, 14884
26238492, 0, 4356
26258248, 0, 5184
26278020, 400, 529
26298820, 1, 25
26316500, 49, 81
26335196, 16641, 225
26358100, 0, 3481
26377848, 12769, 1681
26401768, 16, 16
26420492, 256, 81
26440256, 0, 64
26457940, 225, 225
26478744, 121, 9
26497456, 16, 100
26517216, 121, 64
26536980, 4, 16
26554640, 0, 144
26573376, 0, 20736
26594176, 4489, 17161
26618080, 32761, 0
26638884, 5184, 0
26658648, 6241, 676
26680496, 625, 1024
26702344, 169, 100
26723124, 625, 1156
26744976, 19044, 0
26765764, 5041, 1028
26788656, 6724, 81
26809456, 676, 25
26829208, 625, 256
26850012, 144, 9
26868736, 49, 256
26888504, 289, 169
26909304, 9, 25
26926980, 121, 144
26947780, 81, 4
26965464, 16, 49
26984168, 1600, 0
27003940, 3025, 0
27023712, 1444, 7921
27046564, 4689, 2500
27069432, 0, 17956
27090260, 676, 1
27108980, 361, 64
27128740, 1, 1
27145380, 36, 81
27164104, 0, 30276
27184896, 26880, 0
27205692, 1296, 32761
27229612, 5625, 169
27251456, 81, 169
27271220, 121, 64
27290976, 36, 0
27308664, 25, 49
27327384, 49, 16
27346100, 0, 16
27363788, 0, 225
27382484, 29584, 23716
27407448, 0, 19472
27428236, 7056, 0
27448016, 3844, 100
27469864, 9, 900
27488576, 1024, 484
27510412, 144, 9
27529136, 289, 529
27549940, 361, 81
27569700, 9, 169
27588408, 256, 196
27609220, 49, 9
27626908, 100, 196
27647704, 144, 36
27667464, 4, 64
27685140, 100, 64
27704900, 16, 0
27722580, 13689, 0
27743388, 9, 21904
27764184, 0, 10089
27784968, 3721, 0
27804728, 27225, 1369
27828664, 49, 49
27847384, 9, 9
27864024, 1225, 1369
27886896, 3600, 6561
27909776, 289, 1444
27931588, 169, 0
27950336, 256, 18697
27973220, 17424, 0
27993988, 10089, 4624
28017932, 0, 6084
28037688, 0, 2209
28057464, 841, 784
28078268, 1, 81
28095940, 256, 361
28116740, 196, 25
28136500, 1764, 625
28158348, 1296, 1
28178100, 4, 49
28195772, 169, 144
28216576, 49, 0
28234268, 49, 121
28253988, 0, 196
28272748, 17924, 19044
28297676, 30276, 28713
28322652, 5929, 27225
28346572, 7905, 0
28366328, 19044, 6288
28390252, 2209, 16
28411064, 1, 1024
28430804, 1225, 400
28452656, 16, 3721
28473444, 1849, 24964
28497356, 5476, 19044
28521280, 24025, 4356
28545204, 0, 0
28561852, 8804, 26176
28585768, 31808, 3201
28609688, 3025, 0
28629456, 7744, 1
28649212, 16, 225
28668988, 49, 4
28686660, 49, 121
28706420, 121, 49
28726176, 1, 16
28743860, 64, 64
28762576, 0, 0
28779200, 24649, 0
28800020, 5776, 36
28820824, 49, 49
28839540, 1, 49
28857212, 81, 81
28875940, 49, 9
28893620, 1, 16
28911272, 0, 256
28929988, 29584, 23716
28954972, 0, 19472
28975764, 5929, 0
28995532, 4489, 81
29016344, 4, 900
29035056, 1024, 529
29056900, 144, 16
29076660, 289, 484
29097464, 361, 81
29117216, 4, 144
29135952, 256, 169
29156740, 36, 9
29174416, 100, 169
29195212, 121, 25
29214988, 9, 64
29232680, 81, 0
29250328, 0, 23716
29271156, 0, 3844
29290908, 25600, 16
29312712, 0, 26244
29333520, 25668, 10201
29358484, 13689, 3364
29382396, 13689, 484
29405284, 3249, 0
29425044, 11449, 0
29445848, 3481, 144
29467700, 361, 0
29486420, 0, 9
29503060, 20164, 324
29525912, 6825, 2304
29548812, 11449, 2500
29572748, 0, 324
29591452, 32433, 4761
29615364, 0, 4160
29635120, 5041, 0
29654896, 6400, 49
29675708, 16, 16
29694416, 64, 484
29714164, 529, 400
29734980, 100, 0
29753700, 100, 225
29774500, 225, 36
29794252, 0, 49
29811916, 0, 961
29830676, 21028, 16900
29855592, 0, 0
29872268, 3249, 16384
29896164, 21316, 0
29916960, 225, 32400
29939864, 9604, 9
29959624, 49, 0
29977296, 121, 361
29998096, 256, 121
30018912, 9, 16
30036580, 81, 81
30055296, 36, 0
30072988, 16, 49
30091712, 841, 0
30110408, 25921, 0
30131224, 0, 22500
30152028, 10000, 0
30172804, 0, 10640
30193600, 0, 21316
30214408, 16900, 1600
30238344, 9, 324
30257052, 25, 1
30274748, 16, 100
30294488, 121, 49
30314260, 1, 4
30330896, 0, 0
30347532, 21904, 0
30368324, 5184, 49
30389128, 4, 196
30407856, 49, 25
30426580, 81, 169
30446344, 169, 64
30466104, 0, 25
30483792, 81, 81
30502496, 14641, 27889
30527440, 0, 0
30544088, 529, 4352
30565940, 12769, 3617
30589832, 20164, 28713
30614804, 15625, 31185
30639784, 361, 19321
30662676, 36, 3364
30683464, 676, 9
30702184, 400, 441
30722980, 15625, 9
30743796, 14641, 576
30766648, 1024, 729
30788484, 900, 23104
30811364, 16, 0
30829064, 729, 0
30847768, 900, 20164
30870652, 12100, 5776
30894580, 0, 0
30911208, 1521, 4096
30934100, 2209, 32041
30958004, 7225, 1936
30980884, 21316, 11664
31005868, 289, 17161
31028744, 1, 28224
31049536, 2601, 1
31069308, 676, 0
31088016, 3721, 361
31109864, 4356, 225
31131696, 8836, 169
31153520, 12321, 121
31176404, 0, 7744
31196168, 7225, 2500
31219044, 2209, 4624
31241932, 8100, 3844
31264824, 4096, 1444
31287708, 0, 289
31306420, 100, 256
31327216, 1521, 1296
31350112, 121, 225
31370904, 1369, 256
31392736, 1024, 196
31414576, 841, 961
31435368, 121, 144
31456176, 36, 9
31473856, 169, 1369
31495716, 4, 25
31513376, 64, 841
31533136, 1024, 225
31554984, 289, 289
31575780, 9, 2916
31595548, 49, 1089
31616332, 1024, 1225
31639204, 324, 8100
31661064, 6889, 676
31682904, 841, 576
31703700, 4, 3600
31723452, 36, 1
31741144, 1089, 16
31761944, 9, 225
31780660, 961, 225
31801460, 2601, 100
31823308, 100, 289
31844112, 256, 36
31863888, 9, 1
31880524, 64, 36
31899224, 361, 49
31918968, 1936, 729
31940832, 3025, 576
31962664, 1156, 361
31984508, 625, 1
32003228, 1600, 196
32025076, 1600, 225
32046908, 0, 121
32065632, 36, 25
32084340, 4, 16
32102024, 324, 81
32121780, 225, 64
32141560, 9, 289
32160276, 1, 324
32178988, 81, 16
32197704, 169, 81
32217468, 4, 225
32236180, 289, 225
32256972, 324, 0
32275708, 25, 81
32294428, 0, 1444
32314176, 9, 1936
32333948, 16, 1764
32354760, 25, 1444
32375544, 169, 324
32396356, 484, 144
32417156, 16, 841
32436916, 25, 3249
32457696, 400, 1225
32479544, 1521, 1024
32502436, 36, 0
32520108, 484, 2025
32541952, 400, 1936
32563784, 256, 400
32584588, 9, 16
32602276, 1, 361
32620984, 4, 1024
32640756, 4, 49
32658420, 484, 144
32679240, 225, 1
32697944, 9, 2401
32717676, 1, 4356
32737468, 25, 576
32757224, 36, 529
32776992, 100, 676
32797796, 81, 900
32817540, 16, 36
32836264, 256, 400
32857060, 900, 100
32877880, 196, 1
32896580, 36, 1521
32917380, 0, 529
32936116, 49, 225
32955864, 144, 324
32976660, 9, 36
32994344, 225, 36
33014116, 196, 100
33034900, 441, 169
33055692, 441, 16
33075468, 121, 0
33094180, 81, 324
33113952, 16, 64
33132664, 64, 225
33152428, 25, 256
33172184, 289, 324
33192972, 324, 324
33213788, 64, 1
33231456, 4, 36
33249132, 144, 16
33268912, 400, 784
33289704, 4, 2500
33309460, 256, 169
33330284, 400, 36
33350040, 16, 4
33367712, 100, 0
33386408, 169, 1369
33408272, 0, 1764
33428028, 225, 16
33447788, 361, 81
33467564, 16, 324
33487320, 324, 484
33508120, 400, 324
33528912, 64, 289
33548684, 64, 64
33567396, 1, 16
33585068, 81, 121
33604844, 25, 9
33622504, 100, 169
33643312, 64, 81
33662040, 9, 36
33679724, 256, 121
33700520, 361, 64
33720272, 9, 169
33739004, 36, 1369
33759784, 121, 2500
33781640, 16, 625
33801408, 0, 676
33820104, 0, 1296
33839872, 49, 169
33859640, 144, 16
33879404, 4, 4
33896036, 9, 361
33914736, 169, 144
33935556, 25, 676
33955296, 25, 1089
33976092, 121, 361
33996908, 81, 1089
34017700, 9, 841
34036424, 100, 1225
34058268, 4, 2601
34078048, 400, 9
34096748, 4, 1681
34116504, 144, 1024
34138352, 49, 529
34158116, 121, 2500
34179944, 25, 2601
34200756, 81, 484
34220512, 81, 1
34238184, 441, 225
34259000, 36, 9
34276680, 49, 484
34296420, 64, 729
34316188, 64, 64
34334920, 256, 1
34353620, 64, 1
34371300, 16, 0
34388984, 0, 144
34407712, 1, 49
34425396, 49, 81
34444108, 16, 0
34461800, 1, 4
34478428, 169, 3364
34500268, 324, 6084
34522128, 625, 1444
34543952, 289, 441
34564744, 9, 225
34583464, 36, 0
34601156, 0, 0
34617784, 484, 784
34638584, 144, 484
34659400, 36, 289
34679164, 25, 144
34698916, 36, 0
34716592, 289, 49
34736340, 441, 16
34756120, 121, 289
34776912, 144, 1
34795640, 121, 4
34814356, 144, 1
34833072, 121, 0
34851772, 0, 64
34869476, 0, 100
34888188, 100, 256
34908996, 361, 484
34929800, 361, 9
34948532, 1, 144
34967228, 121, 9
34985940, 0, 49
35003644, 64, 16
35022364, 0, 1
35038984, 36, 361
35058772, 4, 1
35075408, 64, 144
35095160, 36, 81
35113864, 100, 49
35133640, 25, 196
35153376, 0, 225
35172108, 1, 49
35189800, 0, 81
35207460, 64, 100
35227236, 49, 225
35246988, 36, 625
35266756, 36, 1024
35287544, 0, 441
35306272, 25, 400
35326036, 169, 1
35344760, 9, 0
35361400, 49, 4
35379064, 81, 100
35398848, 0, 1
35415480, 0, 100
35434192, 25, 225
35453956, 25, 9
35471640, 9, 9
35488276, 324, 16
35508036, 784, 0
35526752, 36, 196
35546524, 196, 25
35566272, 64, 36
35584984, 16, 16
35603724, 144, 1
35622440, 36, 4
35640116, 0, 0
35656756, 81, 576
35676512, 576, 529
35697312, 361, 9
35716020, 9, 169
35734748, 4, 1089
35754512, 1, 36
35772188, 144, 169
35792992, 289, 1369
35814828, 64, 529
35834588, 36, 64
35853308, 9, 64
35871000, 4, 36
35888672, 16, 225
35908428, 0, 121
35927156, 1, 1
35943796, 49, 729
35963548, 49, 441
35983308, 25, 9
36000996, 64, 4
36018664, 0, 361
36037408, 25, 16
36056132, 25, 36
36074844, 0, 361
36093552, 0, 9
36110184, 16, 4
36127872, 49, 256
36147632, 81, 484
36167396, 100, 100
36188200, 81, 64
36206928, 16, 16
36225632, 4, 400
36244352, 9, 100
36263088, 1, 9
36279724, 0, 36
36297380, 225, 121
36318184, 400, 196
36338988, 64, 484
36358756, 25, 196
36378516, 49, 121
36398272, 9, 25
36415956, 1, 841
36434680, 64, 841
36454432, 121, 81
36474192, 25, 100
36493948, 9, 100
36512672, 1, 25
36530360, 4, 25
36548028, 16, 484
36567796, 25, 324
36587564, 81, 196
36607320, 4, 25
36624992, 1, 1225
36644756, 144, 729
36665564, 49, 9
36683232, 49, 144
36702988, 36, 289
36722756, 1, 81
36740440, 16, 16
36759160, 0, 1
36775792, 49, 256
36795556, 169, 441
36816344, 49, 361
36836108, 0, 441
36854840, 4, 1
36871472, 64, 9
36889152, 100, 4
36907864, 361, 25
36927644, 36, 36
36946352, 121, 169
36967148, 169, 49
36986912, 36, 1936
37007716, 169, 3136
37029548, 100, 729
37050352, 81, 1
37068028, 144, 36
37087788, 25, 1
37105468, 100, 1
37124200, 25, 4
37141880, 4, 100
37160596, 100, 9
37179308, 169, 49
37199072, 1, 1
37215712, 25, 676
37235456, 16, 289
37255240, 4, 169
37273956, 9, 25
37291632, 9, 1
37308268, 144, 1
37326996, 1, 49
37344684, 16, 289
37364436, 9, 100
37383148, 81, 0
37400848, 64, 100
37420592, 0, 144
37439316, 36, 169
37459088, 4, 4
37475716, 81, 400
37495468, 100, 361
37516264, 4, 0
37532912, 1, 100
37551644, 9, 361
37570356, 36, 441
37590124, 36, 121
37609876, 16, 49
37628600, 9, 100
37647292, 1, 1225
37667068, 100, 1600
37688916, 529, 16
37708680, 256, 25
37728436, 0, 0
37745068, 36, 36
37763800, 1, 36
37781468, 16, 64
37800200, 16, 25
37818924, 4, 121
37837640, 16, 196
37857400, 1, 81
37875084, 25, 1
37892756, 16, 36
37911460, 9, 36
37929160, 9, 25
37946840, 36, 16
37965552, 1, 9
37982188, 25, 64
38000924, 4, 100
38019632, 4, 49
38037316, 4, 729
38056040, 16, 4
38073720, 25, 100
38093480, 0, 4
38110116, 4, 1
38126756, 64, 0
38144428, 196, 576
38165240, 169, 400
38186040, 4, 0
38202680, 9, 25
38220356, 25, 0
38238036, 9, 16
38255724, 64, 324
38275476, 225, 49
38295240, 36, 25
38313944, 9, 9
38330588, 0, 0
38347228, 16, 64
38365948, 4, 100
38384684, 16, 256
38404444, 4, 49
38422116, 16, 1
38439804, 9, 36
38457480, 100, 16
38477224, 100, 25
38497000, 225, 100
38517800, 484, 64
38537564, 144, 256
38558356, 4, 16
38576036, 4, 81
38593720, 16, 9
38611400, 9, 64
38629080, 4, 1
38645696, 49, 289
38665484, 16, 121
38685236, 36, 4
38702912, 0, 0
38719552, 9, 0
38736200, 121, 576
38756988, 100, 361
38777780, 25, 4
38795484, 25, 225
38815244, 64, 100
38835000, 0, 0
38851640, 16, 9
38869316, 25, 1
38886996, 36, 25
38905708, 9, 225
38924436, 81, 144
38944188, 25, 49
38962916, 9, 100
38981628, 1, 16
38999320, 0, 16
39017008, 49, 0
39034672, 49, 625
39054440, 1, 1024
39074200, 100, 121
39094984, 49, 361
39114736, 16, 2704
39135548, 64, 5041
39156348, 529, 784
39177148, 529, 9
39195876, 441, 49
39215644, 324, 4
39234348, 100, 100
39255164, 0, 36
39272840, 9, 36
39290520, 16, 25
39309228, 36, 16
39327960, 9, 4
39344596, 49, 100
39364356, 4, 256
39383072, 25, 169
39402848, 1, 49
39420512, 0, 0
39437160, 169, 16
39456924, 121, 4
39475636, 4, 196
39494356, 1, 49
39512028, 0, 16
39529728, 36, 1
39547388, 49, 36
39566104, 0, 16
39583792, 81, 16
39602516, 36, 4
39620192, 0, 9
39636836, 64, 121
39656596, 16, 4
39674292, 1, 25
39691960, 16, 64
39710668, 4, 0
39727320, 49, 16
39746032, 1, 9
39762676, 0, 676
39781408, 36, 625
39801164, 64, 25
39819876, 4, 4
39836512, 36, 441
39856276, 25, 100
39876036, 49, 0
39893716, 1, 49
39911392, 9, 100
39930120, 0, 1
39946752, 49, 25
39965476, 49, 4
39983152, 49, 81
40001880, 9, 81
40019544, 0, 49
40037240, 25, 144
40056996, 4, 1
40073636, 25, 1
40091312, 9, 1
40107944, 0, 36
40125632, 1, 169
40144352, 36, 196
40164104, 16, 25
40182832, 16, 16
40201564, 25, 64
40220276, 4, 4
40236916, 100, 64
40256680, 4, 16
40274360, 196, 9
40293084, 36, 4
40310740, 1, 256
40329480, 0, 81
40347156, 121, 4
40365864, 100, 576
40386676, 25, 1024
40407472, 225, 0
40426184, 100, 144
40447004, 1, 16
40464676, 1, 169
40483400, 1, 25
40501076, 16, 25
40519804, 25, 0
40537476, 121, 36
40557236, 16, 25
40575956, 4, 144
40594684, 1, 16
40612352, 49, 36
40631080, 36, 0
40648760, 4, 4
40665400, 4, 1
40682024, 0, 64
40699716, 4, 4
40716364, 144, 25
40736116, 49, 441
40755872, 0, 100
40774584, 81, 49
40793328, 81, 0
40810988, 0, 4
40827636, 9, 1
40844272, 4, 196
40863004, 100, 144
40883788, 100, 9
40902516, 25, 4
40920208, 4, 1
40936848, 25, 9
40954516, 64, 16
40973228, 169, 64
40993000, 1, 100
41011708, 4, 144
41030440, 1, 169
41049164, 64, 9
41066840, 1, 81
41084512, 0, 9
41101144, 9, 49
41118840, 4, 36
41136528, 1, 49
41154200, 4, 225
41172896, 5776, 484
41194756, 1225, 25
41215544, 12100, 576
41238412, 12100, 2304
41262336, 19600, 625
41285232, 1521, 400
41307044, 513, 9
41325796, 8804, 9801
41348656, 0, 10000
41369464, 5476, 1024
41392332, 15129, 1521
41416252, 18769, 1156
41440188, 1369, 1024
41463068, 121, 2304
41484904, 13689, 2809
41508784, 10089, 49
41530648, 26569, 0
41551456, 784, 0
41570164, 23104, 32400
41595132, 23716, 2025
41619040, 29929, 19145
41644020, 19600, 10640
41668956, 256, 0
41687696, 32400, 0
41708484, 15689, 576
41731364, 0, 4
41748032, 10609, 1764
41771908, 0, 1600
41791692, 25744, 2601
41815604, 0, 8464
41835372, 49, 196
41855144, 1296, 196
41877000, 64, 16
41895700, 36, 784
41915456, 12996, 256
41938320, 17408, 7905
41962244, 22500, 0
41983052, 3249, 289
42004900, 0, 441
42023608, 14089, 6724
42047532, 27889, 5041
42071476, 0, 21904
42092248, 0, 3025
42112024, 841, 7396
42133864, 625, 324
42154660, 1156, 121
42176484, 3600, 16
42197292, 13689, 169
42220168, 0, 3108
42239912, 25281, 0
42260744, 23409, 0
42281540, 24025, 16384
42306504, 441, 169
42327316, 0, 3721
42347044, 0, 16641
42367852, 18496, 0
42388652, 121, 2601
42410480, 0, 3249
42430232, 31684, 12100
42455216, 64, 9
42472884, 3600, 1
42492660, 49, 1
42510320, 36, 4900
42531132, 16129, 1024
42555028, 16833, 4761
42579000, 0, 16384
42599792, 19044, 17689
42624728, 0, 81
42642420, 17985, 1600
42666332, 0, 529
42685040, 4900, 3025
42707932, 0, 24964
42728744, 21025, 26896
42753696, 784, 361
42774496, 1, 4
42791148, 625, 169
42811936, 9, 64
42829616, 361, 20164
42852488, 25, 0
42870164, 1600, 5929
42893052, 3136, 100
42914912, 64, 36
42933620, 49, 256
42953368, 289, 225
42974172, 49, 9
42991868, 81, 121
43011616, 576, 9
43030336, 676, 4
43049040, 0, 1156
43068840, 20249, 484
43091684, 30276, 1936
43115620, 64, 1849
43136408, 16, 100
43156180, 4, 196
43174892, 289, 225
43195700, 64, 1
43213380, 81, 169
43233144, 144, 49
43252904, 0, 36
43270580, 81, 64
43289296, 16, 0
43306960, 0, 6561
43326724, 31329, 3721
43350644, 0, 0
43367280, 0, 22673
43388120, 0, 10404
43408900, 19600, 4
43429708, 676, 4761
43451548, 1089, 6889
43474408, 2916, 961
43496260, 1024, 16
43517080, 25, 0
43534732, 324, 0
43553444, 5776, 22801
43577392, 9216, 10000
43601292, 23409, 1296
43625204, 22201, 21904
43650168, 3108, 0
43669924, 21609, 0
43690732, 2916, 144
43712588, 121, 625
43733388, 400, 9
43752096, 81, 361
43771836, 484, 256
43792660, 16, 36
43811380, 196, 225
43832180, 144, 16
43851948, 16, 121
43871696, 144, 81
43891460, 4, 16
43909156, 529, 64
43928908, 3600, 1369
43951764, 17689, 7396
43975696, 1521, 3844
43998588, 11881, 0
44019380, 2025, 0
44039124, 15876, 961
44062004, 0, 1
44078672, 0, 3969
44098424, 196, 9
44117156, 144, 5776
44138984, 10816, 0
44159780, 6400, 14884
44183696, 0, 729
44202408, 25281, 3600
44226336, 144, 5929
44248176, 15129, 625
44271048, 6400, 1156
44293936, 5476, 729
44315760, 5625, 1369
44338672, 0, 0
44355284, 0, 25233
44376092, 6724, 0
44395860, 5776, 100
44417696, 196, 24025
44440564, 0, 8649
44460348, 27225, 7569
44484244, 1089, 400
44506092, 0, 4356
44525848, 10640, 13924
44550824, 31185, 25065
44575768, 17161, 0
44596588, 4624, 27889
44620504, 0, 2704
44640264, 0, 11664
44661064, 5476, 676
44682892, 1521, 324
44704724, 64, 6400
44725540, 5929, 10000
44749436, 841, 0
44768160, 961, 28900
44791056, 5184, 100
44812900, 0, 196
44831644, 100, 4
44850352, 1, 49
44868020, 100, 64
44887776, 6084, 6889
44910660, 19600, 16641
44935616, 2209, 9
44955376, 121, 1849
44977236, 2025, 20164
45001128, 23104, 1521
45025036, 27556, 15376
45050028, 0, 0
45066640, 3617, 32433
45090568, 0, 0
45107220, 17689, 32400
45132184, 2500, 14400
45156088, 2025, 3600
45178980, 0, 0
45195624, 16260, 0
45216420, 81, 15625
45238252, 29929, 1545
45262176, 4225, 27889
45286120, 5828, 17161
45310036, 0, 1600
45329780, 3249, 24964
45353684, 1024, 7921
45376604, 64, 0
45394244, 1369, 0
45414012, 7569, 26896
45437936, 0, 0
45454576, 0, 8601
45474328, 529, 0
45493060, 4356, 576
45514896, 676, 1
45533624, 36, 36
45552340, 49, 16
45571068, 1, 64
45588740, 64, 16
45607472, 1156, 3600
45630336, 3969, 10816
45654264, 2401, 289
45676112, 36, 1369
45696892, 625, 18769
45719784, 12321, 7056
45743692, 16129, 4900
45767624, 29584, 24964
45792580, 2601, 7056
45815444, 9216, 4900
45838328, 0, 0
45854972, 0, 15913
45875780, 4489, 11748
45899700, 16900, 24964
45924644, 10000, 24336
45949608, 8804, 20900
45973528, 26896, 0
45994340, 4761, 25
46015136, 1764, 49
46035924, 13689, 289
46058816, 30625, 31329
46083756, 100, 27889
46106664, 20313, 0
46127460, 5929, 28900
46151360, 10000, 7921
46175288, 81, 2916
46196120, 729, 14400
46218980, 11025, 361
46241856, 25, 9216
46262652, 14641, 841
46285532, 25, 8281
46306328, 26244, 2401
46330276, 10609, 2116
46354172, 529, 7921
46376036, 2601, 4489
46398892, 20449, 9409
46422808, 6400, 29241
46446732, 0, 17161
46467544, 144, 10404
46490432, 400, 289
46511232, 3969, 1
46530984, 484, 16
46550736, 9, 144
46569444, 196, 144
46590268, 25, 1
46607936, 6889, 4
46627696, 2809, 729
46649552, 10089, 5625
46673448, 15129, 841
46696332, 12544, 26244
46721292, 361, 1156
46743120, 7744, 16129
46767040, 100, 24025
46789940, 0, 17956
46810748, 0, 100
46829460, 4, 1600
46849228, 961, 2209
46871064, 4, 100
46889788, 81, 1369
46910592, 81, 1296
46931376, 289, 441
46952196, 144, 64
46971948, 64, 841
46991724, 16, 361
47011472, 4, 0
47028100, 36, 9
47045772, 28561, 8649
47069704, 17985, 0
47090484, 9604, 5041
47113384, 324, 841
47134180, 16, 4
47151860, 81, 169
47171628, 169, 49
47191388, 0, 49
47209060, 144, 100
47229856, 25, 0
47247540, 21904, 2304
47271444, 0, 18225
47292244, 8649, 7396
47315156, 144, 5329
47336988, 12544, 3249
47360900, 36, 5929
47381696, 7396, 5329
47404592, 2601, 625
47426424, 4225, 1681
47449324, 81, 49
47468004, 6889, 5184
47490900, 1369, 9
47510672, 36, 0
47528356, 64, 900
47548116, 196, 144
47568904, 100, 1156
47590744, 225, 4225
47612584, 4, 441
47631296, 81, 49
47650024, 64, 25
47668748, 4, 0
47685368, 0, 8464
47705144, 0, 6724
47724916, 4, 25
47742560, 81, 3600
47763360, 576, 8281
47785232, 17689, 1849
47809144, 289, 25
47828884, 19600, 9216
47852812, 1024, 14400
47876756, 4, 17985
47897516, 2585, 0
47917296, 0, 36
47934984, 9409, 0
47954712, 29929, 5753
47978644, 1089, 7396
48001524, 676, 13456
48024412, 1849, 16
48045208, 4, 16384
48066016, 0, 5625
48085744, 0, 25
48103436, 27225, 6400
48127368, 0, 22500
48148144, 0, 17689
48168968, 1936, 64
48189780, 256, 1
48208504, 2025, 1225
48231372, 2704, 121
48253228, 9, 400
48271940, 121, 16
48291700, 49, 225
48311460, 289, 169
48332256, 25, 16
48350976, 121, 169
48371780, 121, 16
48391552, 529, 25
48411300, 784, 225
48432088, 2401, 144
48453940, 3969, 9
48473704, 256, 196
48494504, 9, 10201
48515324, 7569, 1089
48538176, 2025, 400
48560012, 4489, 1296
48582892, 9216, 1225
48605780, 9801, 32761
48629676, 1156, 14161
48653612, 16129, 6241
48677536, 24649, 0
48698336, 4489, 0
48718104, 9216, 1296
48740976, 4, 1600
48760736, 0, 121
48779472, 25, 16
48798180, 49, 36
48816916, 100, 361
48837720, 6561, 9
48857472, 4624, 3481
48880324, 16129, 0
48901132, 8464, 2500
48924036, 0, 5929
48943784, 0, 32041
48964548, 4900, 30976
48988516, 13425, 289
49011364, 0, 2401
49031132, 784, 1936
49052988, 4, 196
49071692, 81, 4
49089384, 9, 25
49107068, 36, 9
49124756, 0, 9604
49144496, 625, 18225
49167372, 5041, 144
49189220, 1600, 676
49211060, 225, 64
49230812, 0, 16
49248516, 64, 5476
49269324, 4, 9801
49289068, 529, 13924
49311932, 2401, 29584
49335876, 100, 9540
49357700, 0, 14161
49378488, 21904, 3844
49402436, 3481, 1024
49425300, 49, 12321
49447148, 28900, 1369
49471044, 27225, 11025
49496008, 32761, 0
49516816, 29584, 0
49537632, 1296, 0
49557388, 625, 196
49578184, 16, 49
49596912, 8649, 289
49618720, 23104, 676
49641616, 3600, 1849
49664488, 81, 13689
49686336, 0, 6561
49706092, 0, 14400
49726876, 5929, 15876
49750812, 81, 5929
49771636, 1089, 49
49792420, 36, 100
49812176, 9, 16
49829852, 81, 121
49849620, 64, 9
49867304, 1, 25
49884980, 6400, 5929
49907860, 15376, 13225
49932828, 784, 0
49951532, 25, 1849
49972368, 169, 1
49991068, 81, 361
50010820, 4, 49
50028492, 36, 144
50048260, 100, 25
50068028, 0, 5041
50087788, 256, 7921
50109616, 400, 2025
50131464, 0, 2704
50151224, 225, 1
50169948, 9, 36
50187628, 0, 5929
50207376, 1, 14641
50228176, 25, 10816
50250012, 441, 8100
50271860, 169, 961
50292656, 361, 25
50312420, 100, 64
50332188, 49, 25
50350900, 0, 16
50368592, 36, 25
50387324, 9, 144
50406036, 4, 196
50424756, 25, 256
50444524, 16, 4
50462164, 0, 15876
50482972, 5828, 0
50502724, 0, 20900
50523516, 16641, 0
50544312, 6561, 7921
50567204, 23716, 64
50589040, 31329, 6084
50612976, 16, 729
50632760, 196, 3969
50654592, 9604, 225
50676396, 4096, 11236
50700332, 13689, 441
50723224, 3969, 8464
50746116, 16641, 1521
50770008, 18496, 21316
50794976, 26569, 0
50815784, 100, 0
50834492, 10000, 484
50857364, 100, 900
50878172, 81, 441
50897952, 1, 49
50915636, 8836, 12100
50939512, 30976, 0
50960316, 2025, 21609
50984252, 9409, 15625
51008168, 10404, 10201
51033144, 26896, 0
51053952, 196, 7056
51075760, 28900, 2025
51099684, 26244, 13225
51124644, 27556, 0
51145456, 5476, 0
51165212, 25600, 361
51188104, 22801, 900
51210980, 1849, 1
51230748, 529, 100
51251548, 25, 25
51270264, 81, 64
51288972, 25, 1
51306680, 9, 6724
51326412, 225, 27225
51349284, 1024, 4900
51372188, 676, 36
51391956, 4, 729
51410660, 49, 3721
51431456, 196, 961
51452272, 1681, 100
51474084, 19600, 21316
51499052, 16129, 4160
51522976, 22201, 16900
51547936, 8649, 64
51568752, 15876, 169
51591628, 7569, 16129
51615524, 0, 8836
51635280, 0, 25065
51656096, 0, 0
51672740, 7569, 0
51692488, 49, 24649
51714352, 5929, 36
51735140, 10404, 961
51758000, 0, 2304
51777752, 17689, 31185
51802720, 10816, 0
51823516, 7396, 7569
51846416, 576, 1369
51868252, 1225, 23716
51892176, 441, 0
51910896, 17956, 18496
51935860, 0, 4160
51955604, 0, 0
51972236, 31684, 0
51993060, 10201, 17985
52018020, 0, 6724
52037760, 25, 28561
52059616, 11449, 484
52082504, 4096, 484
52104336, 5929, 1369
52127204, 2500, 0
52146968, 2704, 49
52167772, 3600, 576
52189604, 16, 6724
52210424, 10201, 31329
52235388, 4356, 6889
52258244, 0, 10000
52279048, 0, 21904
52299860, 2809, 2601
52322724, 25, 1444
52343516, 1444, 6084
52366424, 7569, 13225
52390328, 324, 81
52410092, 4489, 8281
52432992, 25281, 11449
52457944, 14641, 529
52480824, 25, 15376
52502644, 0, 400
52521400, 0, 6724
52541132, 5753, 0
52560900, 256, 21025
52583772, 11025, 0
52604580, 144, 0
52623284, 4225, 729
52645144, 169, 13924
52667988, 19321, 4489
52691908, 19881, 19881
52716912, 0, 3249
52736652, 27889, 9801
52760556, 5329, 5776
52783452, 8100, 23104
52807368, 18769, 10404
52832336, 4624, 529
52854172, 0, 144
52872892, 2809, 529
52894732, 5041, 5329
52917632, 4, 361
52936352, 5184, 169
52958176, 49, 5776
52978992, 0, 225
52997708, 16, 841
53017468, 9, 1521
53037224, 196, 2025
53059076, 784, 1
53077768, 5476, 144
53099632, 441, 2916
53121448, 20164, 15876
53146404, 6400, 1849
53169264, 64, 1369
53190068, 3136, 1444
53212968, 24964, 22801
53237948, 13689, 144
53260820, 3025, 17424
53284740, 1369, 8464
53307608, 9216, 22801
53331512, 5929, 18496
53355444, 1600, 1681
53378344, 2500, 1600
53401212, 729, 9
53419936, 1849, 7744
53442812, 1681, 3481
53465688, 1936, 0
53485452, 1225, 14641
53509368, 196, 2809
53531212, 7056, 529
53553044, 16900, 2704
53576976, 289, 16384
53599852, 5184, 2209
53622748, 900, 625
53643544, 25, 9
53661216, 5329, 484
53683048, 3364, 484
53704900, 2209, 289
53726744, 441, 2209
53748580, 529, 1156
53770428, 3600, 9
53790172, 14161, 49
53812028, 5476, 900
53833868, 169, 25
53853624, 1089, 2025
53876504, 1024, 49
53897316, 25, 576
53917060, 361, 1444
53938900, 625, 196
53959704, 16129, 0
53980508, 0, 0
53997124, 20449, 676
54020008, 576, 169
54040820, 0, 256
54059536, 0, 256
54078264, 12100, 256
54101160, 1936, 1225
54124016, 9, 841
54142736, 1681, 196
54164584, 3481, 16
54185380, 2601, 1
54205140, 49, 0
54222824, 49, 16
54241544, 196, 4
54260276, 676, 9
54278984, 100, 225
54299784, 81, 0
54317460, 3136, 400
54339304, 1369, 324
54361144, 4225, 729
54382992, 4225, 676
54404820, 144, 36
54424592, 121, 1
54443304, 100, 81
54463056, 529, 144
54483860, 400, 289
54504664, 484, 49
54524436, 81, 25
54543136, 1, 256
54561884, 196, 1600
54583696, 529, 1296
54605544, 256, 169
54626348, 576, 0
54645072, 36, 36
54663776, 49, 361
54683540, 36, 121
54703316, 361, 100
54724116, 121, 81
54743860, 576, 81
54763624, 1296, 100
54785468, 625, 121
54806260, 100, 1024
54828108, 729, 1296
54849936, 7225, 16
54870740, 9025, 81
54891548, 1849, 729
54913388, 81, 1681
54934172, 144, 400
54954984, 256, 225
54975788, 400, 25
54995544, 576, 100
55016336, 1849, 36
55037144, 1600, 0
55056912, 1, 1156
55076656, 2209, 1225
55099540, 3600, 1156
55122408, 0, 576
55141136, 10609, 3844
55165068, 81, 25
55183784, 225, 25
55203540, 484, 121
55224348, 400, 100
55245148, 144, 0
55263864, 64, 36
55282584, 100, 9
55301316, 49, 25
55320032, 784, 256
55340808, 1521, 1444
55363700, 9, 961
55382416, 64, 0
55400108, 1600, 196
55421928, 2304, 1764
55444824, 16, 729
55464584, 625, 25
55484336, 49, 4
55502040, 100, 196
55522828, 256, 64
55542584, 625, 144
55563388, 324, 25
55583132, 2401, 324
55604972, 10816, 1444
55628908, 2809, 1369
55651780, 1681, 324
55673624, 576, 2025
55695456, 1225, 289
55717304, 2401, 784
55739144, 2116, 36
55759968, 1156, 0
55779708, 16, 484
55799448, 9, 961
55818184, 64, 2025
55839004, 9, 484
55857716, 1, 36
55875372, 625, 900
55896188, 484, 289
55916992, 1521, 900
55938832, 6561, 4
55958580, 6724, 1024
55981464, 5625, 1156
56004332, 625, 625
56025148, 4, 25
56042840, 729, 256
56063624, 361, 256
56084420, 361, 144
56105216, 400, 529
56126020, 256, 400
56146824, 2809, 49
56167624, 7569, 441
56189480, 4, 4
56206104, 3025, 4900
56228980, 3481, 6561
56251860, 1849, 400
56273700, 0, 81
56291380, 361, 225
56312180, 1156, 121
56334020, 1600, 324
56355868, 2809, 0
56375632, 3600, 9
56395392, 1936, 256
56417224, 64, 1444
56438028, 6561, 289
56459852, 0, 1156
56479632, 19321, 1681
56503552, 16, 81
56522276, 729, 484
56543064, 0, 49
56560760, 100, 196
56581548, 100, 64
56601316, 225, 49
56621072, 225, 64
56640820, 25, 49
56659560, 1024, 256
56681384, 1849, 484
56703236, 121, 225
56724020, 25, 121
56743788, 676, 196
56764600, 2209, 16
56785368, 484, 1444
56807224, 225, 1600
56829060, 5041, 400
56850896, 1936, 729
56872744, 625, 49
56892512, 64, 1
56910200, 100, 25
56929936, 289, 64
56949688, 1369, 25
56970504, 324, 0
56989228, 256, 144
57010020, 961, 529
57030832, 324, 121
57051624, 169, 0
57070344, 1369, 49
57091152, 900, 784
57111944, 1, 1521
57131708, 324, 576
57152496, 289, 225
57173312, 196, 841
57194100, 25, 1600
57214900, 841, 961
57235712, 256, 49
57255468, 4, 625
57274180, 225, 1681
57296028, 121, 784
57316816, 64, 225
57336576, 4, 289
57355308, 361, 676
57376108, 324, 9
57394820, 196, 196
57415612, 100, 1156
57437464, 2500, 100
57459296, 8649, 289
57481144, 169, 289
57501944, 1225, 49
57522748, 1444, 144
57544592, 289, 81
57564348, 6561, 25
57585144, 1681, 0
57604904, 400, 64
57624668, 0, 64
57642352, 729, 144
57663148, 576, 64
57682896, 400, 49
57702668, 0, 256
57721384, 49, 100
57741140, 4, 16
57758836, 441, 121
57779628, 1444, 64
57800428, 100, 16
57820192, 121, 0
57838912, 121, 0
57857628, 2209, 1
57877388, 12769, 484
57900264, 1521, 169
57922104, 9, 225
57940828, 0, 1
57957476, 1156, 36
57978288, 441, 900
57999080, 9, 1
58015704, 529, 784
58036512, 400, 441
58057316, 4, 36
58075000, 16, 676
58094756, 0, 1089
58114516, 0, 169
58133228, 49, 9
58150904, 196, 36
58170672, 36, 36
58189384, 9, 16
58207072, 784, 0
58225784, 1089, 25
58246600, 289, 484
58267392, 144, 625
58288196, 256, 121
58308988, 324, 225
58329792, 4, 64
58347456, 900, 4
58366184, 361, 484
58386976, 1600, 576
58408820, 3136, 144
58430672, 3481, 576
58452524, 169, 9
58471240, 25, 9
58488920, 225, 81
58508668, 3969, 121
58530500, 3721, 784
58552352, 676, 64
58572108, 5329, 36
58592904, 2401, 9
58612656, 0, 0
58629312, 2116, 196
58651144, 3844, 841
58672992, 196, 121
58693792, 1849, 16
58714572, 1369, 36
58735388, 400, 100
58756196, 25, 144
58775960, 5625, 36
58796744, 4096, 144
58818592, 100, 144
58839400, 529, 144
58860188, 4, 16
58877860, 25, 36
58896604, 4, 1
58913224, 289, 225
58934036, 144, 1089
58955872, 64, 1
58973548, 784, 625
58994344, 0, 256
59013056, 1521, 100
59034916, 3364, 256
59056744, 3969, 25
59077540, 2209, 100
59099388, 81, 16
59118116, 3844, 961
59139940, 3249, 225
59161796, 121, 121
59182596, 400, 144
59203376, 1444, 324
59225228, 1089, 2401
59248120, 961, 100
59268908, 1764, 1156
59291796, 0, 576
59310512, 64, 196
59330264, 196, 1
59348988, 1764, 169
59370828, 2500, 169
59392664, 441, 256
59413464, 441, 1936
59435316, 900, 1369
59457148, 441, 81
59476920, 4, 25
59494596, 100, 100
59515384, 196, 1156
59537220, 441, 1369
59559068, 441, 529
59579864, 49, 81
59598592, 784, 1
59617316, 576, 36
59637080, 49, 9
59654744, 6561, 784
59676564, 9604, 1444
59699472, 676, 49
59719228, 3025, 289
59741056, 625, 36
59760828, 49, 81
59779556, 324, 100
59800344, 676, 36
59820112, 361, 4
59838836, 25, 49
59857548, 900, 1
59876256, 3844, 121
59898116, 2916, 841
59919948, 225, 1225
59941796, 324, 100
59962588, 900, 529
59983388, 1, 900
60002104, 324, 324
60022908, 1444, 16
60043700, 7225, 256
60065544, 4225, 0
60085324, 324, 289
60106112, 25, 49
60124832, 25, 196
60144592, 484, 0
60163316, 64, 9
60180984, 25, 1
60198668, 196, 4
60217396, 1, 9
60234032, 1521, 144
60255856, 3136, 841
60277704, 576, 1
60296424, 900, 196
60317224, 4, 121
60335948, 64, 121
60355724, 225, 1
60374432, 16, 100
60394172, 0, 1296
60413924, 1936, 1369
60436832, 169, 576
60457620, 484, 841
60478424, 784, 196
60499224, 900, 0
60517952, 484, 121
60538748, 36, 16
60557472, 1, 256
60576192, 169, 400
60596988, 784, 0
60615720, 1296, 256
60637548, 2025, 196
60659384, 361, 225
60680184, 144, 81
60699964, 0, 0
60716604, 4, 9
60733228, 49, 225
60752980, 361, 529
60773780, 4225, 729
60795616, 3249, 256
60817464, 961, 81
60837232, 3481, 196
60859064, 625, 36
60878832, 25, 4
60896512, 144, 121
60917308, 1849, 0
60937076, 9, 25
60954764, 9, 0
60971400, 81, 49
60990112, 100, 9
61008816, 0, 81
61026500, 100, 100
61047308, 100, 196
61068104, 64, 36
61086832, 36, 16
61105548, 100, 4
61124272, 4, 256
61142980, 25, 1
61160680, 2209, 9
61180440, 900, 196
61201220, 49, 121
61220996, 289, 400
61241788, 6084, 196
61263604, 19321, 784
61286508, 7396, 324
61308352, 64, 36
61327072, 64, 1
61344748, 36, 0
61362436, 49, 289
61382176, 289, 441
61403000, 841, 121
61423804, 4, 256
61442516, 4, 16
61460176, 900, 100
61480984, 961, 576
61501796, 529, 3844
61523624, 2209, 8281
61546516, 64, 196
61566264, 64, 1764
61587056, 289, 36
61606816, 196, 289
61627632, 676, 4
61646352, 81, 81
61665068, 144, 25
61684840, 676, 144
61705628, 121, 4
61724336, 625, 729
61745140, 1, 361
61763856, 14641, 2601
61787772, 5041, 3721
61810644, 8281, 3364
61833540, 169, 289
61854324, 0, 3364
61874076, 25281, 2209
61898016, 7921, 900
61919836, 2809, 23716
61943784, 1521, 0
61963544, 12769, 32400
61988500, 0, 576
62007200, 12321, 16384
62032192, 256, 225
62052984, 1296, 12769
62076884, 15129, 4356
62100808, 3136, 27556
62124716, 529, 29241
62147624, 9216, 0
62167388, 36, 0
62185060, 5329, 16
62205860, 784, 4225
62227688, 9216, 196
62249532, 0, 6400
62269284, 0, 1296
62289056, 10000, 169
62311956, 0, 121
62330648, 10304, 5625
62354576, 25600, 31329
62379540, 0, 6084
62399280, 8448, 32761
62423224, 18225, 9604
62447108, 0, 4900
62466904, 26537, 0
62487700, 0, 3025
62507472, 15876, 144
62530352, 9409, 1600
62553228, 10201, 324
62576052, 13689, 32761
62601032, 0, 27225
62621844, 24336, 3969
62645764, 0, 0
62662408, 1424, 21481
62686336, 0, 28713
62707132, 5625, 6400
62730000, 10404, 13924
62754968, 11664, 0
62775740, 144, 7396
62797604, 17161, 1156
62821520, 11236, 2304
62845460, 0, 0
62862100, 0, 0
62878712, 0, 32761
62899548, 29584, 676
62922408, 24649, 36
62944252, 6561, 0
62964024, 8649, 18564
62987936, 121, 0
63006660, 4, 11025
63027456, 121, 100
63048272, 16, 36
63066984, 12769, 1
63087768, 0, 1444
63107544, 10816, 2500
63131456, 26569, 289
63154340, 0, 4225
63174092, 36, 36
63192812, 36, 25921
63214636, 441, 0
63233376, 2025, 15876
63257276, 1521, 225
63279124, 1600, 1156
63302016, 1600, 169
63323852, 11025, 0
63344676, 28224, 29584
63369612, 0, 2304
63389380, 4, 16
63407052, 225, 256
63427872, 81, 9
63445548, 169, 100
63466336, 1, 169
63485064, 100, 25
63504824, 49, 81
63523548, 3844, 81
63544344, 7744, 144
63566188, 19728, 3249
63590080, 11449, 3844
63614012, 0, 0
63630668, 30976, 528
63653544, 10201, 0
63674312, 26896, 20449
63699292, 21609, 961
63722176, 441, 2601
63744008, 100, 2401
63765864, 1089, 5329
63788744, 3600, 100
63810588, 0, 441
63829320, 1225, 1444
63852160, 20449, 0
63872976, 31185, 24649
63897924, 0, 361
63916636, 13225, 289
63939532, 3136, 324
63961380, 64, 49
63980104, 0, 1
63996744, 4, 4
64013384, 25600, 1225
64037296, 18564, 10404
64062260, 14400, 0
64083064, 10000, 6084
64106960, 576, 2500
64128812, 13456, 3969
64152740, 1024, 7225
64175620, 10609, 0
64196408, 16900, 2500
64220340, 100, 16641
64243232, 1024, 7396
64266100, 5776, 20736
64290012, 14884, 676
64312872, 10000, 31329
64337840, 0, 18496
64358664, 27889, 1089
64382572, 5329, 0
64402332, 7056, 21025
64426252, 13456, 625
64449132, 19600, 3481
64473036, 3969, 0
64492804, 3364, 0
64512568, 21025, 4356
64536480, 0, 841
64555212, 25600, 4761
64579128, 324, 625
64599940, 100, 121
64620748, 3249, 2025
64643624, 1225, 14884
64667524, 24964, 15129
64692504, 0, 0
64709132, 5184, 10640
64733032, 729, 0
64751792, 0, 2585
64771548, 2064, 0
64791288, 28224, 729
64814164, 11664, 0
64834988, 144, 11025
64857856, 729, 361
64878652, 9, 144
64897372, 1296, 576
64919212, 121, 576
64940004, 2601, 25
64960820, 6561, 29929
64984720, 0, 21316
65005520, 0, 2401
65025296, 196, 324
65046100, 64, 256
65065852, 225, 144
65086672, 16, 25
65105380, 144, 225
65126172, 121, 9
65144900, 9, 81
65162600, 729, 121
65183384, 676, 144
65204168, 2116, 121
65226020, 1764, 196
65247860, 9, 49
65265536, 64, 4
65283224, 17956, 25
65305040, 0, 3249
65324812, 10816, 2025
65348740, 1, 64
65366428, 7569, 289
65388240, 0, 2704
65408008, 9409, 400
65429872, 0, 484
65448580, 0, 2304
65468328, 21025, 100
65491228, 0, 0
65507860, 18769, 0
65528644, 3364, 30976
65552576, 12305, 0
65573380, 4356, 0
65593124, 6561, 1089
65616032, 289, 784
65636820, 441, 81
65656580, 9, 225
65675292, 400, 324
65696100, 81, 1
65713796, 121, 9
65732480, 7056, 1225
65755368, 18225, 1
65776168, 2116, 1156
65799052, 4, 4
65815712, 4, 49
65833384, 11025, 3025
65857272, 28224, 17689
65882260, 2585, 19145
65906164, 19321, 0
65926968, 4624, 6724
65949864, 729, 2601
65971692, 2209, 8464
65994576, 529, 784
66015384, 9801, 5184
66038264, 2025, 16
66059068, 1089, 20449
66082980, 0, 2209
66102748, 6288, 12100
66126648, 9604, 1156
66149528, 1681, 7569
66172420, 0, 16384
66193200, 32400, 0
66214028, 2401, 25
66234820, 144, 1
66253540, 2916, 1681
66276404, 12321, 9604
66300344, 9604, 0
66320104, 2116, 11236
66344016, 20164, 324
66366884, 16900, 6889
66390828, 0, 0
66407448, 11057, 0
66428264, 31808, 0
66449028, 24464, 13924
66474028, 0, 3364
66493772, 30276, 3721
66517696, 1369, 0
66537452, 121, 324
66558252, 289, 121
66579072, 196, 8100
66600876, 0, 784
66619620, 12864, 0
66640420, 441, 15625
66663292, 0, 0
66679956, 9553, 8100
66702824, 27332, 4624
66726720, 20736, 6241
66750656, 23104, 22500
66775620, 4, 18225
66796404, 10000, 4489
66820348, 32041, 32400
66845276, 7569, 22500
66869212, 20900, 0
66890008, 0, 31329
66910816, 6889, 5184
66933680, 5476, 0
66953468, 1, 9
66970092, 25281, 6084
66994004, 0, 12769
67014800, 4096, 8100
67037696, 484, 64
67057460, 25, 169
67077228, 121, 16
67096984, 0, 25
67114660, 49, 36
67133372, 9, 4
67150036, 25, 4225
67170832, 169, 9025
67192656, 576, 49
67212424, 49, 1156
67233224, 100, 25
67252976, 16, 16
67271724, 1, 256
67290424, 15376, 900
67313300, 0, 7921
67333044, 12100, 3721
67356976, 0, 49
67374656, 0, 49
67392360, 0, 0
67408988, 81, 5776
67429792, 9409, 11449
67453684, 0, 2116
67473456, 5625, 5329
67496344, 256, 16
67516104, 1, 1
67532740, 0, 4096
67552504, 9, 12321
67573288, 625, 2500
67595140, 441, 0
67613868, 4, 36
67631548, 1, 529
67650264, 4, 841
67668964, 0, 3364
67688708, 27225, 1849
67712648, 0, 2401
67732408, 11193, 8281
67756340, 0, 5929
67776084, 5041, 3969
67798964, 0, 23409
67819776, 29241, 27889
67844728, 24336, 169
67867608, 0, 7225
67887392, 4, 5329
67907136, 4900, 5929
67930004, 17424, 25
67951856, 625, 196
67972656, 36, 49
67991376, 64, 841
68011140, 529, 25
68030900, 9, 121
68049604, 18769, 10201
68074576, 0, 30976
68095360, 11881, 9604
68119304, 6889, 0
68139048, 21609, 28900
68164004, 0, 3136
68183780, 64, 4
68201456, 144, 81
68221232, 1, 9
68237856, 30976, 9604
68261764, 18564, 0
68282564, 8464, 18225
68306492, 900, 9216
68328324, 10816, 3136
68352244, 4, 4356
68372000, 18496, 25921
68396976, 9604, 3364
68419864, 0, 29929
68440644, 0, 0
68457288, 6084, 8100
68480180, 0, 0
68496836, 0, 27489
68517612, 4356, 12544
68541520, 0, 2809
68561308, 31684, 6724
68585212, 576, 441
68606020, 324, 169
68626812, 0, 6724
68646552, 64, 8649
68667368, 4, 8464
68687140, 144, 9801
68708968, 0, 11664
68729752, 23409, 10000
68754740, 841, 100
68775560, 1, 25
68793216, 225, 1521
68815056, 25, 49
68833780, 1, 64
68851476, 81, 100
68871244, 4, 36
68888924, 16, 1
68906564, 0, 4761
68926332, 30276, 11664
68951312, 0, 2916
68971056, 28561, 15376
68996000, 196, 5184
69017888, 16, 0
69035552, 676, 1424
69057384, 1369, 8836
69080240, 0, 0
69096900, 5828, 28713
69120804, 32433, 0
69141620, 19881, 13225
69166580, 28224, 4225
69190480, 2809, 5929
69213368, 3969, 19600
69237296, 0, 16384
69258104, 0, 2704
69277856, 5184, 2916
69300728, 31684, 3249
69324648, 27225, 5625
69348584, 0, 0
69365204, 26537, 7312
69389128, 0, 0
69405784, 12996, 0
69426588, 3249, 0
69446340, 576, 25
69466080, 196, 3600
69487928, 0, 0
69504552, 1028, 0
69524332, 10816, 1681
69548264, 0, 0
69564868, 27489, 0
69585684, 0, 6889
69605452, 22500, 0
69626256, 225, 26244
69649132, 0, 0
69665752, 3633, 15689
69689684, 0, 0
69706320, 0, 14553
69727128, 15376, 1521
69751044, 9025, 29929
69774976, 6561, 0
69794744, 3025, 7056
69817628, 529, 29241
69840492, 25281, 14400
69865456, 0, 10609
69886264, 15625, 100
69909136, 3844, 1369
69931996, 2500, 6724
69954900, 19321, 289
69977764, 64, 0
69995440, 0, 25065
70016256, 0, 17956
70037040, 7744, 8649
70059924, 144, 13225
70082824, 196, 169
70103620, 1, 1849
70123364, 400, 12996
70146272, 0, 0
70162892, 7312, 3633
70185752, 12321, 3617
70209708, 15689, 0
70230488, 0, 2025
70250280, 1024, 2209
70273144, 121, 36
70292896, 256, 81
70312664, 900, 81
70332396, 144, 0
70351124, 4624, 0
70370880, 36, 225
70390644, 2025, 36
70411468, 1849, 81
70432272, 81, 25
70450980, 9, 9
70467632, 36, 4
70485292, 0, 20164
70506100, 7312, 0
70525852, 14641, 14884
70550812, 625, 24964
70573684, 961, 9604
70595536, 3136, 11664
70619452, 0, 16
70637128, 16833, 22801
70662080, 8464, 10816
70686024, 7905, 0
70705776, 23409, 0
70726568, 7396, 4489
70749464, 256, 625
70770256, 64, 1225
70791048, 64, 1764
70811868, 256, 0
70830584, 1, 9
70847228, 81, 1681
70868024, 484, 2916
70889864, 1089, 3969
70912724, 3721, 5929
70935612, 0, 0
70952252, 5753, 0
70972008, 3481, 29929
70995920, 4689, 0
71015708, 0, 30564
71036508, 28561, 5476
71060404, 8057, 5476
71083292, 0, 19881
71104100, 324, 2116
71125924, 29241, 24649
71150876, 0, 16900
71171680, 7744, 900
71193540, 16, 4624
71214304, 0, 7744
71234088, 0, 1369
71253840, 6084, 4225
71276748, 0, 0
71293380, 2064, 0
71313136, 441, 21025
71336008, 0, 23409
71356812, 17985, 0
71377604, 0, 3108
71397356, 7056, 19600
71421288, 5041, 1
71441064, 3721, 8100
71463928, 6561, 3025
71486808, 4, 16641
71507604, 0, 15376
71528424, 961, 0
71547152, 81, 25668
71568960, 4900, 17161
71592896, 2116, 576
71614744, 64, 28900
71636580, 1089, 26569
71660496, 2500, 81
71681296, 16, 484
71701060, 49, 1764
71721852, 1089, 9216
71744732, 36, 8836
71765540, 81, 6724
71786340, 5625, 5184
71809208, 5329, 49
71829992, 9604, 0
71849792, 25668, 4
71870564, 0, 0
71887208, 12996, 196
71910112, 13456, 0
71930888, 7744, 528
71952736, 1, 31684
71973504, 16833, 1521
71997428, 0, 22801
72018260, 100, 25921
72041128, 3969, 25
72061912, 144, 24964
72084804, 529, 0
72103524, 6400, 2500
72126400, 1089, 20736
72150336, 0, 6561
72170092, 23716, 13689
72195052, 17161, 121
72217948, 900, 5476
72239768, 1225, 0
72259524, 30976, 7921
72283444, 0, 7569
72303196, 0, 324
72321932, 729, 441
72342728, 32761, 529
72365612, 29328, 7056
72389516, 11881, 22500
72414508, 2704, 100
72436332, 2916, 4096
72459208, 441, 484
72480012, 7056, 0
72499764, 17161, 1024
72523668, 625, 36
72543448, 324, 4761
72565300, 0, 18225
72586088, 19600, 25921
72611064, 144, 25
72630816, 64, 1521
72651628, 2916, 4356
72674488, 32761, 15876
72699440, 14161, 8100
72723372, 15689, 1936
72747296, 0, 2704
72767056, 2704, 144
72788900, 2809, 64
72809704, 0, 441
72828420, 144, 900
72849220, 100, 1
72867944, 121, 36
72887708, 100, 1
72906416, 289, 729
72927208, 81, 289
72946980, 5929, 196
72968824, 24025, 1156
72992748, 5329, 1936
73015620, 18769, 3364
73039528, 2704, 5476
73062388, 5184, 49
73083212, 36, 81
73101932, 64, 625
73121692, 121, 0
73140424, 676, 8464
73162248, 1681, 9604
73185136, 0, 3249
73204912, 24964, 13225
73229860, 196, 1444
73251700, 729, 400
73272512, 576, 289
73293304, 12321, 25
73315136, 196, 64
73334904, 31808, 3025
73358800, 8057, 10609
73382704, 28224, 10609
73407708, 0, 16
73425372, 0, 4900
73445132, 0, 3844
73464916, 1369, 3600
73487760, 0, 1156
73507568, 10089, 7056
73531480, 25, 1369
73552276, 10609, 1
73573060, 2500, 2116
73595916, 0, 784
73614644, 26896, 3249
73638568, 36, 25
73657276, 169, 25
73677028, 1225, 1156
73699920, 169, 16
73719688, 144, 225
73740484, 289, 841
73761308, 9, 25
73778972, 121, 3136
73800820, 0, 2209
73820572, 4, 1600
73840324, 441, 1296
73862188, 4356, 289
73884016, 13689, 144
73906904, 17956, 2916
73930828, 400, 441
73951632, 1369, 100
73973468, 4225, 9
73993232, 22801, 1936
74017124, 8448, 4624
74040028, 5753, 6084
74062904, 3969, 64
74083700, 15129, 121
74106580, 10404, 2401
74130512, 16, 484
74150264, 0, 16
74167952, 529, 36
74187708, 841, 144
74208500, 1369, 121
74230348, 1, 2809
74250108, 1849, 2025
74272984, 5329, 1764
74295860, 0, 36
74313548, 7312, 3481
74336400, 0, 6400
74356160, 29241, 4096
74380092, 169, 961
74400896, 13456, 1296
74424796, 0, 1600
74444564, 13456, 225
74467464, 0, 1225
74487220, 0, 4096
74506984, 2809, 400
74528824, 3721, 841
74550668, 1156, 1225
74573544, 576, 100
74594336, 0, 4
74610988, 0, 8836
74630756, 729, 9801
74652568, 16260, 1681
74676492, 0, 5929
74696244, 256, 100
74717056, 49, 1
74734728, 81, 16
74753432, 225, 1764
74775296, 0, 3364
74795048, 17924, 3969
74818968, 22500, 2116
74842908, 0, 5776
74862656, 30625, 9409
74886588, 3249, 36
74907380, 8281, 64
74928196, 2500, 81
74948988, 361, 900
74969780, 289, 2304
74991624, 6889, 225
75013464, 8281, 484
75035296, 3844, 121
75057120, 3969, 121
75078964, 169, 49
75098716, 256, 144
75119540, 2209, 64
75140336, 6561, 625
75162176, 0, 144
75180884, 10304, 8281
75204840, 5828, 10201
75228740, 25281, 4225
75252640, 0, 529
75271392, 0, 11881
75292192, 7921, 3844
75315068, 6241, 1
75334836, 2500, 49
75355600, 676, 100
75376396, 121, 81
75396168, 9, 49
75413844, 121, 441
75434660, 23716, 16
75456476, 12305, 1444
75480400, 12996, 8836
75504328, 18769, 1156
75528272, 2704, 36
75549064, 3481, 361
75570900, 121, 961
75591688, 0, 25
75609396, 0, 22500
75630164, 0, 8100
75649944, 1444, 1681
75672808, 29584, 1936
75696712, 11881, 8100
75720632, 400, 1764
75742504, 0, 25
75760168, 0, 19321
75780956, 0, 4225
75800728, 100, 0
75819460, 21904, 3364
75843356, 0, 7921
75863144, 8804, 3844
75886020, 17956, 6400
75909948, 2209, 2500
75932812, 0, 484
75951544, 21316, 5184
75975452, 100, 841
75996256, 576, 289
76017040, 196, 100
76037836, 64, 256
76057612, 25, 0
76075288, 0, 16
76092976, 81, 1
76110668, 4, 196
76129392, 0, 900
76148104, 29584, 3136
76172020, 10404, 1936
76195932, 4356, 3364
76218808, 11025, 2916
76242728, 9604, 25
76263540, 1225, 1849
76286408, 18225, 4225
76310348, 13689, 1369
76334264, 0, 225
76352988, 9, 2916
76372724, 3364, 1
76392484, 1089, 256
76414348, 6084, 144
76436168, 10000, 361
76459056, 1369, 1296
76481944, 29584, 484
76504832, 11449, 2209
76528752, 1296, 256
76550560, 0, 529
76569300, 0, 10000
76590096, 4624, 289
76611952, 400, 1849
76633772, 0, 1225
76653508, 11881, 3364
76677448, 400, 2401
76699304, 64, 841
76719040, 729, 841
76739844, 3249, 529
76761708, 0, 1296
76781456, 0, 2916
76801220, 0, 3364
76820964, 21609, 256
76843860, 17956, 3364
76867788, 729, 256
76888588, 1521, 169
76910424, 2304, 484
76932260, 27225, 144
76955132, 7056, 1681
76978012, 5184, 1
76997772, 7569, 1
77017524, 22201, 5625
77041460, 13988, 10201
77066412, 21609, 8649
77090340, 900, 361
77111120, 0, 1156
77130920, 0, 7056
77150648, 0, 4096
77170420, 0, 961
77189152, 10000, 3136
77213056, 0, 196
77231784, 19145, 7744
77255680, 0, 961
77274412, 11449, 121
77297276, 1024, 784
77319128, 144, 49
77338888, 4, 400
77357612, 9216, 2209
77380480, 12544, 2025
77404412, 8464, 36
77425236, 49, 16
77443956, 5329, 49
77464760, 324, 289
77485536, 0, 289
77504264, 1, 1521
77524036, 100, 1369
77545876, 49, 196
77565624, 16, 36
77584340, 36, 16
77603068, 4, 49
77620752, 100, 121
77641560, 1156, 9
77661312, 2116, 441
77683144, 1444, 1089
77706028, 1681, 196
77727880, 841, 1
77746596, 484, 36
77766348, 169, 49
77786104, 0, 1444
77805868, 25, 121
77825632, 3481, 484
77847452, 361, 729
77868272, 21904, 4
77889072, 3481, 1764
77911928, 20449, 25
77933764, 2704, 729
77955604, 4761, 1444
77978484, 900, 16
77998256, 441, 729
78019060, 4761, 1
78038796, 5329, 1089
78061696, 29929, 5476
78085632, 5184, 2916
78108480, 11193, 1444
78132428, 0, 3844
78152184, 529, 0
78170896, 22201, 1
78191692, 8836, 4
78211464, 32761, 9
78232252, 0, 1521
78251996, 5329, 121
78273844, 7569, 1444
78296748, 361, 49
78316500, 169, 1024
78338340, 0, 1024
78358080, 0, 11236
78378904, 0, 15376
78399696, 0, 6084
78419456, 19600, 6400
78443364, 0, 784
78462100, 22201, 3025
78486040, 1, 121
78504744, 81, 16
78523476, 784, 1089
78545316, 100, 169
78566104, 81, 1764
78586916, 64, 529
78606676, 64, 121
78626424, 256, 100
78647212, 9, 121
78665952, 49, 961
78685708, 16, 49
78704436, 25, 1
78722116, 324, 0
78740832, 196, 196
78761620, 4, 484
78780336, 289, 36
78800120, 4900, 25
78820916, 32400, 1369
78844828, 7744, 1369
78867712, 0, 225
78886432, 81, 441
78906200, 0, 0
78922840, 361, 121
78943640, 16, 49
78962344, 25, 81
78981060, 361, 225
79001876, 49, 81
79020588, 3249, 196
79042420, 5041, 256
79064280, 10609, 36
79086108, 1681, 4
79105868, 4, 900
79124596, 169, 1600
79146432, 0, 0
79163060, 361, 625
79183880, 0, 529
79202596, 2304, 4
79222348, 841, 9
79241068, 1521, 64
79261876, 3721, 225
79283720, 576, 144
79304512, 289, 1
79323220, 6400, 49
79344036, 15876, 900
79366904, 2809, 625
79388752, 25, 256
79408484, 0, 9
79425148, 21028, 12769
79450084, 28100, 19881
79475052, 6084, 4761
79497936, 49, 4
79515604, 2209, 324
79537476, 100, 576
79558264, 81, 324
79578004, 12321, 81
79599872, 3025, 81
79620672, 1369, 36
79641468, 0, 1156
79661228, 18769, 529
79684116, 30976, 2304
79708016, 12769, 3481
79731944, 7225, 144
79753764, 4489, 841
79775620, 25281, 784
79798500, 12996, 1600
79822420, 9025, 256
79844260, 676, 64
79864036, 1600, 0
79883804, 4, 1369
79903556, 529, 9
79922276, 441, 576
79943076, 2401, 784
79964912, 36, 625
79984676, 289, 169
80005480, 1, 64
80023156, 4, 9
80039800, 25, 100
80059560, 100, 25
80079304, 11025, 144
80102188, 26896, 1600
80126112, 4356, 2401
80148980, 7921, 361
80170832, 625, 729
80191624, 13924, 1849
80215524, 3600, 625
80237368, 1369, 3600
80260264, 0, 400
80278984, 26896, 5929
80302912, 576, 2209
80324748, 1156, 225
80346576, 3969, 400
80368416, 4225, 100
80390260, 4, 196
80408984, 30276, 1089
80432900, 18225, 3249
80456828, 0, 3136
80476560, 0, 5184
80496328, 12544, 1681
80520272, 0, 841
80538980, 24025, 3249
80562900, 13689, 196
80585792, 0, 1156
80605560, 9216, 0
80625308, 625, 64
80645064, 1, 36
80662756, 49, 361
80682520, 1296, 64
80703308, 576, 81
80723072, 36, 36
80741792, 676, 64
80761552, 729, 144
80782356, 22500, 1444
80806272, 10404, 784
80829136, 27225, 1024
80853060, 0, 5776
80872804, 9409, 2500
80895684, 1764, 1849
80918576, 400, 529
80939392, 0, 25
80957064, 28900, 2809
80980976, 10000, 25
81002820, 4900, 2704
81025700, 841, 36
81045444, 441, 121
81066276, 3136, 676
81088100, 2401, 729
81109924, 10404, 961
81132800, 7056, 961
81154644, 1, 169
81173384, 20449, 1764
81197304, 13689, 121
81220164, 1296, 0
81239880, 21904, 5776
81263836, 7225, 17956
81287764, 3481, 4624
81310640, 100, 729
81331456, 121, 289
81352264, 0, 25
81369944, 1600, 121
81391788, 625, 121
81412572, 169, 1369
81434408, 625, 15376
81457296, 576, 4356
81479124, 2401, 625
81500976, 169, 0
81519680, 225, 0
81538436, 0, 21809
81559216, 0, 0
81575840, 3721, 0
81595608, 9604, 0
81615392, 2025, 0
81635140, 7056, 15625
81659060, 8836, 7744
81681948, 9604, 3600
81704804, 17161, 3969
81728752, 2401, 0
81748508, 2916, 22801
81772412, 2704, 225
81794248, 20449, 2116
81818148, 169, 0
81836872, 3364, 26569
81860808, 3136, 22201
81884736, 12996, 8464
81908640, 1296, 9409
81931516, 0, 11881
81952324, 19321, 0
81973136, 529, 4
81991860, 0, 576
82010568, 729, 324
82031372, 36, 81
82050100, 361, 441
82070912, 225, 9
82089632, 4900, 1089
82112480, 8281, 12769
82136420, 1225, 3481
82159292, 0, 0
82175916, 12569, 20548
82200888, 25668, 11328
82225844, 3721, 0
82245612, 7056, 16
82266424, 81, 169
82286180, 64, 1
82303860, 1, 49
82321544, 81, 64
82340256, 16, 0
82357940, 16, 36
82376672, 1369, 17424
82400568, 2116, 0
82420324, 841, 13689
82443212, 1849, 9
82462992, 4, 196
82481692, 49, 0
82499376, 36, 121
82519144, 121, 64
82538908, 4, 9
82555524, 0, 0
82572164, 21609, 0
82592976, 5476, 49
82613772, 4, 196
82632492, 49, 16
82651220, 100, 225
82672032, 169, 64
82691776, 0, 36
82709456, 81, 64
82728192, 2025, 1849
82751044, 5184, 6889
82773916, 49, 12769
82795788, 0, 9409
82815536, 0, 289
82834244, 0, 16
82851924, 27889, 5329
82875856, 196, 529
82896660, 0, 25
82914332, 24025, 6724
82938240, 676, 0
82956932, 0, 28900
82977748, 22201, 9216
83001684, 4356, 361
83023512, 6241, 9216
83046416, 3844, 6241
83069272, 0, 19881
83090088, 12996, 5753
83114016, 81, 256
83133776, 4, 1764
83153520, 2304, 1089
83176404, 0, 0
83193052, 29729, 0
83213844, 2809, 0
83233608, 8281, 324
83255464, 0, 28900
83276244, 18769, 0
83297052, 5929, 49
83317860, 676, 529
83338656, 36, 121
83358408, 529, 841
83379216, 529, 81
83398980, 25, 225
83418736, 5329, 100
83440564, 8281, 256
83462424, 784, 1089
83484248, 100, 25
83504012, 0, 81
83521712, 225, 169
83542500, 64, 1
83560176, 36, 100
83579944, 81, 36
83598668, 1, 16
83616340, 64, 49
83635076, 25, 0
83652740, 0, 23104
83673524, 27889, 2601
83697440, 0, 0
83714088, 13328, 10417
83739044, 17985, 19617
83764004, 3721, 0
83783768, 4900, 289
83805616, 1936, 9
83825368, 8464, 1089
83848244, 0, 0
83864884, 0, 5892
83884644, 4356, 0
83904408, 6400, 1
83924176, 0, 729
83942904, 484, 81
83962660, 4, 144
83981388, 289, 256
84002184, 100, 0
84020900, 81, 144
84040656, 121, 36
84060420, 0, 49
84078104, 100, 100
84098904, 25, 0
84116584, 25, 64
84135308, 49, 16
84154004, 0, 2809
84173748, 32041, 12321
84198736, 0, 10304
84219520, 10000, 0
84240324, 4624, 49
84261140, 36, 529
84280896, 625, 361
84301700, 100, 9
84320420, 169, 324
84341216, 225, 49
84360980, 1, 81
84378660, 169, 100
84399468, 25, 1
84417136, 49, 121
84436892, 100, 16
84456668, 4, 25
84474352, 64, 2500
84495108, 0, 7056
84514884, 0, 1369
84534636, 1849, 64
84555444, 0, 11449
84576232, 22201, 16900
84601216, 441, 16
84620980, 9, 484
84639692, 841, 576
84660504, 225, 1
84679216, 81, 256
84698968, 256, 100
84719784, 0, 36
84737464, 121, 121
84758260, 49, 1
84775948, 49, 100
84795704, 81, 36
84814424, 900, 4
84833116, 25600, 0
84853936, 15376, 0
84874728, 16833, 0
84895520, 0, 0
84912152, 18225, 0
84932972, 8464, 0
84952728, 0, 784
84971436, 23268, 10816
84996424, 0, 16833
85017200, 22500, 0
85038000, 11664, 676
85060912, 4, 1
85077532, 400, 1024
85099368, 784, 324
85120180, 4, 121
85138900, 361, 361
85159700, 121, 0
85178416, 100, 225
85199212, 225, 64
85218980, 0, 49
85236656, 144, 121
85257464, 36, 0
85275152, 16, 81
85293884, 64, 0
85311536, 0, 27889
85332340, 0, 4900
85352112, 1521, 4
85371844, 7921, 289
85393684, 1681, 0
85413464, 0, 0
85430080, 11328, 3969
85454028, 23268, 28900
85478968, 7744, 1444
85501836, 17956, 18496
85526804, 0, 0
85543440, 6569, 20548
85567368, 17408, 31876
85592320, 6889, 0
85612092, 7921, 121
85633924, 9801, 0
85653692, 7921, 0
85673424, 31684, 11236
85698400, 0, 0
85715048, 0, 22801
85735844, 28900, 1225
85759764, 4900, 900
85781624, 361, 289
85802420, 64, 49
85821144, 16, 0
85838824, 4, 4
85855468, 1, 0
85872092, 19321, 0
85892892, 6724, 0
85912656, 121, 1089
85934492, 2064, 30625
85958400, 26569, 0
85979220, 4489, 121
86001064, 25, 25
86019780, 0, 81
86037452, 100, 100
86058268, 36, 1
86075940, 9, 36
86093616, 18496, 625
86116496, 0, 5929
86136232, 7744, 3844
86159136, 49, 1
86176820, 49, 9
86194508, 81, 100
86214260, 10609, 5625
86238148, 26569, 27556
86263140, 1444, 9216
86286004, 0, 0
86302640, 5089, 29968
86326568, 26880, 16836
86351516, 4900, 0
86371276, 8281, 4
86391060, 169, 36
86410828, 1, 16
86428500, 16, 25
86447232, 9, 4
86463868, 24964, 144
86486716, 15689, 3600
86510652, 15129, 2809
86534556, 11664, 0
86555368, 625, 0
86574096, 5753, 3364
86596968, 0, 1600
86616720, 6724, 2025
86639624, 64, 49
86658352, 0, 9
86674980, 36, 16
86693700, 16, 9
86711368, 0, 0
86728004, 24649, 0
86748804, 4356, 64
86769608, 25, 36
86788348, 25, 0
86806040, 2401, 196
86827852, 11449, 144
86850748, 1444, 289
86872596, 0, 4356
86892320, 13328, 12100
86917292, 0, 0
86933916, 23409, 0
86954736, 14641, 9
86975532, 15129, 169
86998420, 1089, 961
87020260, 16, 1
87037924, 0, 25
87055628, 49, 36
87074340, 25, 1
87092000, 0, 6889
87111776, 0, 2209
87131540, 100, 12996
87154400, 0, 0
87171040, 0, 0
87187688, 8281, 2500
87210564, 361, 11881
87233436, 0, 0
87250108, 0, 0
87266724, 8649, 0
87286492, 4900, 1089
87309384, 1521, 49
87330180, 25, 225
87349928, 441, 324
87370732, 49, 16
87389468, 169, 289
87410260, 196, 36
87430024, 0, 81
87447696, 7312, 8100
87470560, 27889, 5329
87494492, 0, 0
87511148, 31684, 0
87531940, 7225, 24336
87555832, 8836, 0
87575616, 144, 28900
87598492, 6561, 361
87620340, 169, 100
87641128, 9, 1225
87660896, 3364, 961
87682752, 169, 31684
87705620, 0, 14641
87726404, 30976, 11025
87751384, 121, 225
87772172, 196, 7225
87794012, 0, 1849
87813768, 0, 8281
87833524, 4225, 49
87854336, 7569, 64
87875136, 784, 256
87895940, 25, 49
87914672, 16, 25
87933388, 16, 1
87951048, 0, 0
87967680, 24649, 0
87988484, 5041, 0
88008256, 121, 49
88028004, 25, 24025
88049860, 7056, 5753
88072716, 961, 17408
88095612, 64, 15376
88117460, 2116, 2500
88140340, 361, 36
88160104, 144, 144
88180900, 25, 9
88198580, 100, 169
88219380, 81, 25
88238108, 1, 36
88255780, 64, 64
88274500, 25, 1
88292176, 17956, 14400
88317132, 0, 0
88333772, 5041, 14161
88357708, 1849, 4
88377468, 36, 9
88395156, 9, 1
88411776, 6889, 19881
88435664, 19321, 9540
88459616, 100, 17424
88482504, 0, 13225
88503308, 8649, 169
88525120, 2209, 10404
88549052, 1369, 100
88570900, 121, 1156
88592728, 0, 23716
88613520, 0, 30976
88634328, 4624, 81
88655152, 144, 25
88674896, 64, 100
88694652, 25, 0
88712348, 676, 4
88731036, 29929, 100
88753940, 5089, 4489
88776812, 24964, 5929
88800736, 225, 4
88819452, 1296, 36
88840260, 529, 169
88861060, 15876, 16
88882900, 81, 0
88900548, 0, 0
88917216, 3025, 0
88936980, 5329, 1
88956740, 0, 676
88975464, 529, 121
88996264, 0, 121
89014980, 324, 324
89035780, 121, 1
89054508, 49, 144
89074260, 169, 49
89094012, 0, 49
89111708, 81, 100
89131452, 1764, 16
89152252, 7225, 729
89174108, 2025, 144
89195944, 1, 9
89212580, 100, 36
89232340, 1, 9
89248972, 0, 0
89265604, 21316, 0
89286408, 5329, 49
89307216, 1, 225
89325944, 49, 9
89343620, 81, 361
89363396, 100, 1
89382116, 324, 0
89400820, 31684, 0
89421620, 0, 23377
89442404, 20736, 29929
89467364, 24649, 3249
89491288, 25921, 0
89512096, 5329, 0
89531848, 6400, 784
89553700, 36, 169
89573468, 144, 49
89593220, 4, 36
89610908, 144, 196
89631684, 961, 1
89650416, 16641, 24649
89675356, 8649, 0
89695128, 4489, 21904
89719060, 2704, 144
89740900, 1, 400
89759624, 256, 25
89779384, 25, 196
89799132, 676, 400
89819924, 8100, 324
89841776, 0, 0
89858412, 0, 27121
89879208, 6084, 0
89898964, 7744, 196
89920836, 2304, 0
89940580, 12100, 0
89961376, 4489, 3600
89984252, 13456, 289
90007128, 14641, 1936
90031036, 31684, 0
90051844, 12996, 0
90072660, 5329, 729
90094480, 676, 4
90113232, 4, 25
90130892, 16384, 36
90152728, 0, 1600
90172480, 7056, 2304
90195380, 0, 1
90212016, 25, 9
90229684, 0, 17956
90250524, 0, 11025
90271276, 11025, 0
90292088, 529, 0
90310824, 2601, 1
90330580, 4225, 676
90352408, 5041, 441
90374260, 625, 1849
90396084, 729, 484
90416888, 144, 25
90436668, 361, 625
90457460, 441, 64
90477216, 4, 196
90495920, 324, 225
90516748, 49, 9
90534428, 121, 196
90555220, 121, 16
90574988, 1, 64
90592660, 100, 100
90613464, 9, 1
90630096, 49, 81
90648816, 0, 21904
90669620, 0, 9409
90689384, 3969, 100
90711200, 169, 0
90729908, 10609, 29584
90754888, 16900, 4225
90778824, 11449, 4900
90802712, 0, 0
90819360, 0, 31808
90840172, 0, 27225
90860976, 3844, 484
90882808, 19600, 2401
90906720, 6084, 7056
90929600, 7364, 0
90949384, 18769, 0
90970176, 9025, 0
90989944, 169, 9
91008632, 0, 0
91025284, 20736, 30276
91050232, 32041, 0
91071040, 4225, 0
91090808, 0, 961
91109528, 2500, 1369
91132416, 1369, 49
91153204, 841, 625
91174020, 1, 1
91190672, 64, 169
91210412, 5041, 36
91231204, 5329, 324
91253064, 49, 484
91272820, 4, 81
91290500, 1, 16
91308180, 0, 0
91324800, 13225, 0
91345612, 7056, 1
91365364, 1, 256
91384100, 49, 16
91402820, 81, 169
91422580, 169, 64
91442344, 0, 36
91460032, 15876, 256
91482880, 0, 4900
91502656, 6241, 3249
91525540, 0, 36
91543224, 81, 1
91560896, 2401, 64
91581708, 3249, 529
91603532, 961, 361
91624340, 49, 64
91643072, 64, 4
91660756, 529, 361
91681528, 324, 4096
91703384, 31329, 2304
91727296, 0, 15625
91748100, 2025, 28224
91772024, 2116, 11881
91795932, 484, 529
91816744, 4, 0
91833364, 18225, 1681
91857288, 22500, 6724
91881224, 9801, 3600
91904112, 5041, 9
91923868, 1089, 961
91945716, 196, 36
91965484, 9, 9
91982112, 4, 9
91998760, 1, 0
92015380, 0, 0
92032032, 0, 0
92048672, 1, 0
92065304, 0, 11236
92086092, 121, 7744
92107948, 841, 3249
92129780, 0, 4356
92149544, 625, 9409
92171376, 49, 625
92191136, 7744, 1369
92214008, 18225, 25600
92238980, 4489, 0
92258736, 484, 31329
92281628, 100, 9
92300344, 16, 2116
92321152, 2116, 25
92341940, 13924, 225
92364824, 15625, 5184
92388724, 11748, 1600
92412664, 14553, 25281
92437608, 2304, 121
92459428, 1681, 9216
92482332, 13456, 2304
92506256, 30625, 8100
92530188, 4900, 16
92550964, 10609, 19728
92575924, 2500, 28224
92599856, 9801, 0
92619616, 0, 32400
92640416, 7396, 169
92662260, 2500, 529
92684100, 2500, 1936
92706976, 576, 27889
92729848, 64, 2401
92750644, 1296, 11449
92774568, 121, 324
92795376, 784, 676
92816164, 12544, 2809
92840100, 529, 23716
92862988, 3481, 1600
92885860, 0, 8836
92905624, 32041, 1849
92929540, 15625, 0
92950328, 196, 4356
92972172, 7744, 3364
92995052, 1089, 9
93014816, 529, 961
93035616, 4624, 256
93057452, 9216, 19321
93081384, 21904, 8464
93105308, 18225, 5041
93129216, 23104, 0
93149988, 10201, 0
93170812, 4624, 121
93192644, 625, 256
93213436, 2025, 676
93235292, 0, 324
93254004, 5329, 64
93274816, 961, 121
93295592, 15376, 169
93318504, 1296, 0
93338264, 11449, 0
93359060, 16, 1369
93379876, 961, 729
93400660, 900, 1681
93422496, 729, 841
93443304, 1156, 49
93464100, 22801, 100
93486960, 4096, 9604
93509844, 4900, 841
93531680, 1521, 1849
93554568, 3025, 1369
93577452, 2304, 23409
93601376, 20449, 3600
93625288, 0, 12769
93646092, 289, 10404
93668968, 169, 1849
93690788, 4624, 3136
93713684, 2025, 1024
93736572, 81, 11881
93758424, 49, 9
93776100, 6889, 0
93795856, 0, 13225
93816656, 1681, 11236
93840592, 6084, 9
93860336, 5776, 8100
93883232, 9, 1
93899856, 1369, 64
93920668, 961, 81
93940424, 225, 100
93961236, 361, 9
93979948, 625, 1
93998656, 256, 16
94018420, 729, 4
94037148, 441, 9
94055852, 7744, 8464
94078728, 19600, 0
94099552, 729, 10201
94122420, 676, 36
94142184, 121, 1
94160908, 529, 81
94180664, 1849, 64
94201472, 1764, 9
94221220, 144, 64
94240988, 256, 529
94261792, 3721, 3481
94284664, 0, 3249
94304424, 5753, 81
94325232, 0, 144
94343940, 0, 21025
94364744, 32761, 13924
94389672, 400, 29929
94412552, 4489, 0
94432336, 361, 64
94452112, 529, 81
94471844, 196, 25
94491596, 225, 1225
94513460, 841, 9
94532184, 2809, 4
94551920, 1600, 3249
94574804, 23409, 2209
94598732, 32400, 25281
94623684, 6241, 0
94643456, 64, 8281
94664260, 15876, 10404
94689200, 2401, 29584
94713120, 3136, 25600
94737044, 6889, 28900
94760980, 1849, 6724
94783864, 6561, 2025
94806732, 0, 0
94823380, 2025, 0
94843140, 32761, 21316
94868072, 22500, 0
94888888, 100, 0
94907612, 6241, 1
94927380, 2116, 841
94949204, 1225, 3969
94972080, 1681, 1089
94994972, 784, 14884
95017856, 64, 400
95037624, 961, 12100
95060504, 0, 81
95078176, 36, 81
95096900, 324, 169
95117708, 1600, 0
95137460, 441, 1089
95159312, 961, 4624
95181148, 676, 900
95201940, 900, 0
95220652, 576, 64
95240424, 121, 0
95259144, 196, 4
95277864, 400, 64
95297632, 841, 144
95318440, 16, 625
95338180, 289, 256
95358972, 64, 100
95378744, 625, 36
95398496, 729, 36
95418260, 36, 16
95436984, 49, 1
95454656, 1225, 4225
95477536, 4761, 10816
95501476, 441, 144
95522264, 8281, 1296
95545124, 4225, 14161
95569048, 8836, 1024
95591936, 13924, 7225
95615872, 900, 31684
95638740, 961, 14884
95661612, 6561, 3364
95684500, 16900, 2916
95708408, 0, 324
95727156, 441, 36
95746892, 3969, 25
95767700, 5776, 324
95789512, 6724, 729
95811348, 4489, 100
95833216, 12544, 676
95856084, 18225, 10816
95881052, 3481, 14641
95904968, 8649, 19044
95928892, 841, 2025
95950752, 7921, 529
95972580, 2500, 81
95993352, 2304, 11449
96017288, 900, 400
96038104, 9409, 289
96059944, 441, 6084
96081776, 441, 841
96102588, 225, 7225
96124420, 8100, 2401
96147292, 2500, 100
96169132, 4, 784
96187836, 5329, 225
96209680, 4096, 4
96229440, 144, 324
96250248, 361, 4
96268968, 2500, 1
96288736, 0, 16
96306416, 225, 0
96325152, 225, 676
96345944, 1225, 2704
96368812, 81, 225
96388568, 400, 529
96409356, 9, 1225
96429148, 81, 4356
96449940, 841, 7225
96471776, 2209, 6400
96494660, 2601, 11881
96518576, 25, 15376
96540424, 3969, 4
96560192, 441, 256
96580992, 484, 1089
96602820, 361, 6561
96624668, 1024, 400
96646524, 9, 784
96665232, 64, 1369
96686016, 64, 676
96705796, 100, 2500
96727620, 1681, 15129
96751528, 400, 10201
96774428, 7396, 20164
96798340, 625, 26244
96821212, 2601, 10816
96845148, 900, 9
96863856, 1296, 11025
96887772, 4900, 6400
96910656, 1369, 2704
96933540, 12544, 25600
96958512, 1936, 6084
96981388, 36, 6561
97002176, 0, 169
97020884, 25065, 1156
97044816, 15376, 21904
97069772, 1089, 5776
97092652, 6084, 26896
97116588, 1024, 25
97137376, 5625, 5329
97160264, 2500, 5625
97183136, 576, 841
97203936, 841, 5776
97225800, 0, 256
97244500, 1024, 2601
97267380, 289, 841
97288176, 144, 225
97308984, 9, 1600
97328724, 324, 441
97349536, 16, 169
97369292, 25, 625
97389048, 36, 225
97408804, 225, 1
97427548, 2304, 625
97449364, 1600, 3025
97472264, 441, 31684
97495144, 729, 7225
97516976, 2209, 729
97538820, 0, 2500
97558596, 400, 0
97577300, 1849, 1849
97600184, 16, 13456
97622008, 121, 5329
97643860, 289, 8281
97665708, 25, 3721
97686484, 784, 5041
97708328, 2704, 1681
97731208, 3969, 1764
97754088, 196, 19321
97776980, 196, 20736
97799852, 2500, 12544
97823780, 25, 1764
97844592, 2916, 361
97866432, 25, 2116
97887220, 961, 0
97905948, 1849, 2500
97928816, 121, 3969
97950648, 3249, 2809
97973548, 3025, 22500
97997464, 2601, 16900
98021368, 729, 15625
98044276, 14400, 49
98066096, 12321, 3481
98090028, 1089, 3025
98112900, 1369, 5929
98135776, 3969, 11025
98159696, 5184, 12321
98183612, 169, 4900
98205464, 5776, 1
98225212, 36, 1369
98246024, 16, 6724
98266808, 784, 81
98286564, 961, 324
98307372, 841, 1296
98329196, 64, 0
98346876, 2116, 576
98368744, 225, 9
98387468, 2601, 25
98408260, 1225, 441
98430120, 64, 529
98449860, 1600, 961
98471708, 2704, 6084
98494600, 100, 4096
98516432, 1764, 2209
98539304, 4761, 225
98561140, 4900, 11236
98585072, 64, 2809
98605868, 225, 1849
98627692, 1156, 961
98649544, 441, 8836
98671396, 36, 2916
98692192, 25, 2809
98712988, 784, 81
98732756, 324, 2809
98754600, 49, 81
98773308, 576, 2209
98795144, 529, 1764
98816992, 484, 1
98835708, 0, 36
98853388, 1089, 400
98875224, 441, 1156
98897076, 400, 529
98917864, 4761, 1681
98940744, 5184, 100
98962592, 256, 784
98983380, 1600, 9025
99006272, 441, 6084
99028096, 529, 3025
99049940, 1, 10000
99070740, 729, 256
99091540, 1369, 2209
99114420, 49, 256
99134180, 441, 4356
99156036, 25, 3025
99176836, 144, 2116
99198664, 2116, 49
99219436, 14884, 729
99242328, 24649, 17161
99267280, 17689, 5329
99291216, 8836, 0
99310972, 0, 26569
99331760, 2401, 3844
99354672, 225, 324
99375468, 841, 3600
99397304, 256, 2304
99419148, 2916, 3136
99442024, 7569, 1681
99464904, 1936, 729
99486756, 289, 1681
99508588, 16, 289
99528348, 1225, 36
99549120, 16, 1444
99569956, 36, 2304
99590748, 225, 81
99610496, 484, 9216
99632344, 576, 7225
99654188, 64, 49
99672916, 4, 1936
99692672, 169, 3025
99714492, 400, 1521
99736348, 64, 576
99756116, 9, 400
99774844, 324, 81
99794584, 0, 1764
99814344, 4, 441
99833072, 324, 1296
99854912, 36, 625
99874676, 9, 100
99893404, 16, 9
99911068, 36, 2809
99931868, 9, 8649
99951640, 484, 1849
99973472, 1024, 225
99995304, 784, 49
100015060, 676, 9
100034828, 900, 9
100054576, 225, 169
100076428, 49, 4
100095152, 0, 36
100113872, 49, 1024
100135716, 0, 1681
100156520, 0, 289
100176272, 441, 8100
100199140, 25, 3721
100220984, 4761, 15376
100245940, 3136, 1681
100269852, 1849, 24336
100294820, 2500, 361
100317700, 64, 10404
100340572, 4489, 9025
100364488, 2401, 2304
100388400, 27225, 16384
100414408, 22201, 1
100436260, 36, 6724
100458100, 2304, 144
100480972, 324, 9
100500744, 2401, 2116
100524668, 64, 81
100544404, 1849, 5329
100568336, 4761, 9801
100592260, 3364, 2401
100616172, 7056, 1225
100640100, 1444, 29929
100665060, 100, 12321
100688988, 4096, 12321
100713960, 441, 9
100733704, 196, 2809
100756600, 729, 8649
100779460, 361, 1
100799216, 3136, 7225
100823132, 49, 7225
100844980, 9, 1089
100865780, 169, 81
100886584, 841, 6889
100909460, 121, 1156
100932336, 169, 1849
100955244, 1681, 841
100978104, 2116, 5476
101002016, 1444, 625
101024912, 1600, 1764
101048828, 169, 7744
101071700, 900, 441
101093536, 4624, 2500
101117472, 961, 729
101139284, 256, 4761
101162200, 100, 121
101184024, 1600, 7569
101207948, 36, 5041
101229796, 441, 289
101251620, 576, 6241
101274504, 121, 484
101296352, 441, 9216
101319224, 100, 361
101341056, 841, 1156
101363952, 484, 900
101385776, 1444, 289
101408664, 1089, 0
101429460, 841, 32400
101453372, 4900, 6084
101477292, 10201, 18225
101503304, 0, 25
101522016, 20449, 2916
101546968, 196, 100
101568816, 484, 16641
101592756, 3969, 2601
101616672, 2401, 8836
101640576, 5625, 6400
101664500, 2304, 4356
101688424, 11664, 14400
101714420, 4489, 144
101737296, 3025, 12100
101762276, 49, 324
101783060, 169, 4489
101805948, 49, 1296
101827780, 10201, 1681
101852740, 2500, 11881
101877680, 4624, 0
101898500, 13689, 25281
101924468, 21025, 0
101946308, 841, 12321
101970232, 0, 13225
101992084, 19600, 729
102016020, 0, 10000
102037852, 0, 3600
102058640, 24025, 18225
102084668, 7056, 225
102107532, 6889, 1521
102131452, 16384, 961
102155376, 0, 196
102175148, 1296, 961
102198024, 2025, 36
102219876, 3136, 0
102240652, 1849, 17161
102265604, 2704, 15876
102290576, 0, 0
102308252, 0, 17153
102330064, 4225, 3249
102354000, 1024, 19145
102378976, 0, 0
102396652, 0, 4624
102417480, 19145, 10609
102443428, 16900, 21025
102469432, 15129, 0
102491280, 529, 28224
102515204, 6241, 14400
102540176, 0, 0
102557860, 0, 121
102577620, 27332, 13225
102603600, 0, 6889
102624420, 36, 11025
102647292, 3481, 324
102670164, 1225, 0
102690976, 14641, 24649
102716992, 0, 2601
102737768, 0, 289
102757552, 0, 3721
102778332, 0, 5041
102799112, 0, 0
102816820, 19881, 2809
102841760, 6288, 18564
102866700, 0, 4160
102887560, 0, 3249
102908328, 14089, 1521
102933280, 31684, 19321
102959288, 0, 0
102976960, 3633, 0
102997776, 2500, 900
103020644, 20164, 0
103042476, 9409, 17956
103067456, 13689, 23104
103093456, 100, 1296
103116340, 31329, 19881
103142304, 3025, 0
103163136, 7225, 0
103183928, 2209, 100
103206828, 16, 49
103226588, 441, 1296
103249448, 0, 513
103269204, 28900, 0
103291068, 10816, 1
103312900, 2809, 9
103333704, 49, 361
103354500, 25, 4
103373224, 0, 4
103390916, 484, 4
103410656, 841, 16
103431464, 121, 81
103452260, 4, 4
103469944, 0, 1
103487636, 0, 12996
103509452, 0, 0
103527120, 10816, 30564
103553140, 0, 0
103570808, 5625, 0
103591612, 6561, 4
103612404, 16, 841
103633208, 529, 100
103655060, 0, 144
103674816, 361, 289
103696668, 0, 441
103716416, 27225, 5041
103741364, 1, 0
103759056, 196, 23409
103782976, 9604, 256
103805848, 2704, 9
103826656, 11025, 12544
103852648, 0, 13225
103874496, 0, 30276
103896340, 9604, 441
103919220, 29328, 2401
103944152, 15120, 11193
103970168, 28100, 14073
103996156, 5329, 0
104016992, 27489, 27489
104042948, 0, 4689
104063776, 9409, 29929
104088740, 0, 0
104106424, 0, 528
104126192, 1089, 0
104146988, 11664, 3136
104171944, 17689, 1444
104196884, 0, 0
104214576, 25281, 24336
104240548, 0, 27889
104262384, 4225, 18769
104287376, 729, 0
104307144, 1600, 0
104327928, 4, 81
104346668, 0, 121
104366412, 24964, 4096
104391376, 0, 64
104410084, 21904, 8649
104435072, 361, 36
104455852, 0, 529
104475608, 5041, 1296
104499528, 0, 0
104517196, 6825, 0
104538004, 21316, 4900
104562972, 10000, 1764
104587924, 0, 7921
104608720, 0, 1849
104629532, 529, 2809
104652404, 400, 3844
104675300, 0, 121
104695064, 4160, 4761
104718948, 19044, 8993
104743920, 3481, 24649
104768908, 0, 0
104786560, 0, 0
104804240, 2116, 17424
104829220, 0, 0
104846892, 28561, 6825
104871844, 12996, 0
104893700, 2401, 0
104914484, 1936, 1521
104938396, 0, 0
104956056, 14852, 0
104977936, 18564, 9025
105002880, 23104, 5776
105027872, 4489, 0
105048644, 3844, 28900
105073608, 27556, 4624
105098556, 5625, 0
105119384, 64, 0
105138076, 17424, 2916
105163056, 676, 25
105183856, 9, 36
105202572, 225, 169
105224428, 64, 1
105243144, 36, 100
105263952, 121, 1225
105286836, 5625, 27225
105311764, 8649, 29584
105336712, 23268, 7905
105361704, 361, 0
105381452, 15625, 576
105405372, 16641, 18496
105431384, 529, 3249
105454236, 10201, 6241
105479208, 0, 0
105496904, 0, 4160
105517696, 16, 5184
105539536, 576, 196
105561380, 5329, 81
105583208, 1225, 4
105604000, 12100, 4
105625864, 15625, 16900
105651844, 12100, 81
105674732, 5753, 30976
105699688, 256, 14884
105723600, 5625, 27889
105748576, 6288, 0
105769356, 21609, 0
105791212, 4356, 100
105814096, 36, 900
105834892, 0, 625
105854672, 7056, 81
105876496, 0, 15625
105898332, 0, 1156
105919128, 15376, 5041
105944112, 676, 64
105964908, 100, 10609
105988800, 16384, 3481
106013796, 0, 0
106031468, 22080, 0
106053296, 9801, 28900
106078240, 11236, 0
106100100, 100, 0
106119852, 11664, 289
106143788, 36, 4356
106165636, 3721, 9409
106189548, 1089, 13924
106214512, 5220, 2209
106238404, 16129, 32400
106264436, 64, 0
106283124, 8836, 22201
106308084, 21904, 23268
106334100, 0, 0
106351772, 22673, 7569
106376732, 7312, 20900
106401664, 20449, 0
106423540, 9025, 289
106446408, 0, 0
106464112, 12569, 0
106485936, 9540, 0
106506736, 14400, 5476
106531684, 400, 0
106551456, 100, 3136
106574352, 0, 2601
106595132, 24336, 15876
106621124, 1089, 0
106641932, 1, 13689
106663764, 22801, 4
106685600, 5625, 0
106706408, 29584, 4689
106731368, 1225, 0
106752176, 64, 6561
106774012, 23104, 20449
106800004, 2601, 0
106820808, 6889, 13225
106845784, 19600, 5625
106870712, 0, 3600
106891520, 5625, 21316
106916484, 2585, 0
106937276, 19881, 0
106959140, 4096, 144
106982016, 100, 961
107003856, 529, 36
107024652, 12100, 19321
107050644, 400, 196
107072504, 0, 18496
107094324, 25600, 27556
107120336, 16, 25281
107143220, 3600, 1
107164028, 3025, 26244
107188968, 17161, 7396
107213948, 0, 4356
107234728, 0, 0
107252404, 0, 528
107272148, 3721, 0
107292976, 5329, 25
107314824, 0, 9025
107335600, 20449, 1296
107360568, 6400, 6400
107384496, 2401, 9216
107408404, 15689, 169
107432328, 0, 10000
107454168, 6825, 0
107474972, 23104, 0
107496820, 7744, 625
107519700, 81, 225
107540520, 0, 484
107560256, 484, 144
107582108, 256, 121
107603928, 24649, 784
107627848, 1369, 9409
107651752, 2809, 20736
107676728, 11193, 0
107698564, 20449, 0
107720408, 5776, 484
107743312, 1681, 8464
107767204, 0, 1
107784868, 0, 0
107802572, 0, 1600
107823360, 4352, 0
107844184, 0, 11881
107866012, 28224, 225
107889932, 12100, 361
107913864, 0, 28900
107935672, 30276, 12769
107961696, 9216, 729
107984564, 31329, 0
108006416, 20449, 0
108028260, 7396, 225
108051128, 0, 121
108070912, 10201, 484
108094800, 81, 0
108113524, 29584, 0
108135364, 9216, 1681
108159296, 2809, 900
108182164, 20449, 361
108206068, 2401, 0
108226888, 3136, 0
108247692, 3721, 25
108269536, 36, 289
108290336, 4, 3025
108311128, 121, 18769
108335032, 29584, 32433
108361048, 23716, 0
108382892, 14161, 121
108406808, 64, 0
108425540, 9216, 0
108446332, 961, 625
108468160, 2601, 64
108490024, 225, 16
108510812, 484, 841
108532632, 0, 0
108550336, 0, 26176
108572188, 0, 0
108589864, 0, 2401
108610656, 900, 1600
108633520, 5625, 0
108654320, 0, 21609
108676164, 0, 7744
108696980, 361, 64
108717768, 400, 81
108738576, 25, 225
108759384, 361, 289
108781232, 64, 121
108802024, 64, 3721
108823860, 0, 16129
108845676, 29584, 0
108867536, 1369, 36
108889388, 4096, 0
108910168, 16900, 1444
108935124, 12305, 1545
108960080, 24964, 0
108981956, 7396, 64
109003768, 21609, 0
109025600, 4225, 22201
109050576, 0, 2209
109071392, 0, 6561
109092188, 21489, 19728
109118156, 15876, 0
109140020, 10816, 0
109161868, 1600, 11236
109186792, 3249, 3136
109210756, 16833, 18496
109236732, 441, 32400
109260672, 3025, 13425
109285616, 20313, 1089
109310564, 0, 27225
109332396, 22201, 15129
109358416, 576, 4624
109381292, 9216, 15625
109406248, 0, 29584
109428092, 22201, 0
109449936, 4225, 2704
109473840, 22201, 6889
109498800, 1521, 26569
109523768, 0, 0
109541464, 0, 16833
109563288, 0, 11664
109585132, 26244, 3249
109610112, 17689, 100
109633996, 900, 0
109653760, 3136, 0
109674580, 2809, 529
109697456, 196, 49
109718268, 1, 1
109735944, 4, 0
109753632, 1, 4
109771316, 4, 0
109788952, 0, 0
109806644, 0, 6084
109827460, 1296, 3249
109851368, 0, 0
109869040, 0, 0
109886720, 8836, 0
109907532, 6561, 196
109930416, 625, 1
109950172, 16, 24964
109973040, 0, 5329
109993848, 0, 10609
110015712, 484, 225
110037544, 25, 4
110056264, 0, 1
110073948, 0, 1
110091632, 12769, 64
110114488, 0, 1764
110135276, 7056, 1521
110159224, 0, 4
110176904, 64, 4
110195612, 25, 81
110215392, 121, 81
110236192, 16, 1
110254900, 25, 49
110274668, 36, 9
110293388, 1, 9
110311080, 676, 11025
110334960, 576, 0
110354732, 784, 9025
110377620, 1156, 16
110399456, 49, 81
110419220, 36, 9
110437940, 1, 121
110457688, 100, 64
110478508, 9, 1
110496184, 36, 49
110515940, 36, 4
110534664, 1, 16
110553388, 16, 25
110573140, 841, 1
110592884, 2916, 256
110615780, 784, 81
110636584, 0, 9
110654260, 25, 9
110672992, 0, 4
110690640, 0, 256
110710384, 29241, 4
110732236, 0, 11664
110754080, 20164, 14641
110780096, 100, 36
110800916, 256, 14884
110824808, 0, 3136
110845596, 26896, 17161
110871608, 0, 0
110889312, 19600, 16836
110915288, 8281, 23377
110940260, 8100, 24649
110965216, 21904, 0
110987040, 15625, 24649
111013056, 0, 2585
111033852, 18496, 0
111055692, 5476, 144
111078604, 4, 25
111097312, 225, 324
111119144, 900, 1089
111142000, 0, 0
111159692, 2153, 30921
111184644, 31185, 11328
111210668, 0, 0
111228316, 0, 8993
111249120, 5329, 28224
111274084, 1028, 27556
111299040, 0, 0
111316740, 16, 36
111336504, 9, 81
111355240, 6889, 0
111376000, 7396, 0
111396776, 28900, 0
111418676, 3721, 24953
111443616, 3969, 0
111464408, 1369, 5041
111488360, 900, 576
111510192, 16, 64
111529948, 196, 196
111551804, 144, 16
111572592, 16, 100
111593384, 144, 81
111614204, 9, 4
111631868, 36, 81
111651632, 36, 1
111670360, 4, 36
111689072, 49, 36
111708836, 1, 9
111726508, 25, 25
111746276, 16, 1
111764996, 4, 196
111784752, 9, 0
111802424, 2304, 324
111825316, 529, 169
111847128, 9409, 324
111870012, 7056, 1521
111893920, 8836, 7225
111917840, 3844, 0
111938652, 11236, 0
111960480, 3025, 9
111981280, 576, 13225
112005212, 8100, 0
112026024, 289, 0
112045788, 5184, 1225
112069704, 256, 2209
112092572, 1296, 441
112115460, 1681, 9604
112139380, 9025, 1225
112163284, 8100, 12100
112188244, 1444, 29929
112213196, 15129, 0
112235060, 1296, 22801
112260004, 12996, 100
112283940, 5329, 81
112305784, 169, 4624
112328648, 1444, 27225
112353624, 400, 3600
112376496, 9801, 1369
112400416, 1936, 9801
112424336, 576, 100
112446180, 1936, 1089
112470092, 3136, 4489
112494016, 2601, 81
112515860, 12996, 2601
112540824, 784, 10201
112564736, 22201, 6724
112589684, 0, 529
112609444, 13456, 169
112633376, 0, 2116
112654172, 4689, 3249
112678104, 4356, 16
112699924, 1849, 2809
112723848, 15129, 1521
112748800, 5184, 3481
112772732, 0, 676
112792488, 26569, 7744
112817468, 676, 1849
112840336, 0, 256
112860100, 15120, 10609
112886084, 20900, 3364
112911060, 0, 8464
112931864, 15376, 20449
112957860, 841, 121
112979700, 5625, 484
113002584, 3721, 225
113025468, 1764, 1849
113049380, 0, 64
113068096, 0, 10000
113089928, 24964, 1764
113114908, 0, 5041
113135692, 0, 4225
113156504, 196, 36
113177292, 361, 400
113199140, 10609, 1089
113224088, 2209, 1521
113247996, 8649, 5184
113271944, 0, 4
113289624, 0, 14400
113311476, 0, 7744
113332272, 22500, 2601
113357220, 1764, 961
113380088, 0, 4761
113400884, 30976, 16900
113426896, 1444, 3481
113450812, 16900, 2209
113475784, 4096, 4225
113499700, 15625, 5929
113524640, 2500, 3844
113548592, 23268, 12544
113574560, 32400, 5329
113599520, 0, 6724
113620328, 0, 6241
113641124, 3844, 9
113661936, 1089, 625
113684804, 400, 729
113706628, 1089, 289
113729552, 0, 400
113749312, 0, 1369
113770076, 0, 1600
113790904, 697, 5776
113813776, 31684, 17689
113839764, 0, 36
113858496, 0, 6400
113879304, 11664, 1849
113904240, 21609, 900
113928172, 26569, 3481
113953132, 8100, 961
113976024, 3481, 4225
113999928, 0, 2704
114020744, 0, 10404
114042564, 5625, 196
114065464, 0, 841
114085212, 0, 6084
114106000, 29584, 2209
114130988, 0, 4225
114151776, 31808, 7569
114176728, 256, 256
114198592, 12864, 81
114221460, 0, 625
114241192, 21904, 5184
114266172, 64, 2209
114288028, 25, 2809
114309860, 0, 36
114328580, 24025, 8836
114353544, 196, 625
114375380, 64, 225
114396188, 729, 256
114418036, 121, 1444
114440888, 10609, 1936
114465848, 400, 1764
114488720, 6724, 2401
114512652, 0, 64
114531380, 29584, 9025
114556340, 144, 81
114577140, 400, 841
114598960, 0, 1024
114619780, 0, 7225
114640556, 3364, 1521
114664504, 10000, 400
114688416, 25281, 484
114712340, 28224, 1936
114737316, 100, 36
114758116, 529, 1296
114780972, 16900, 900
114804892, 169, 1764
114827780, 7744, 1225
114851688, 0, 81
114870420, 0, 5476
114891228, 2916, 9
114912024, 1, 361
114931808, 1296, 529
114954636, 0, 64
114973384, 0, 1600
114994188, 22801, 6889
115019120, 0, 3136
115039928, 0, 11236
115061784, 196, 16
115082572, 3364, 36
115104396, 1764, 81
115126228, 676, 81
115147056, 0, 36
115165788, 49, 1225
115187608, 3600, 225
115210508, 0, 256
115230264, 24964, 6084
115255216, 361, 676
115277076, 441, 100
115298888, 0, 36
115317628, 11057, 9604
115342576, 0, 13225
115364392, 13225, 1225
115389388, 2585, 2704
115413308, 31684, 5776
115438236, 0, 2025
115459044, 0, 8464
115479848, 14400, 1369
115504796, 1681, 2401
115528736, 0, 289
115548488, 8804, 5929
115572436, 17153, 6724
115597396, 0, 6084
115618192, 0, 6400
115638972, 0, 3600
115659756, 961, 1089
115682632, 11664, 225
115706568, 0, 2704
115727348, 17924, 11236
115753384, 18697, 6241
115778340, 20736, 12996
115804344, 0, 2601
115825160, 31808, 6889
115850104, 24464, 5476
115875076, 17408, 2209
115900016, 0, 6724
115920800, 1681, 1024
115944724, 10000, 2500
115969696, 11025, 324
115993632, 676, 2916
116016508, 9, 2116
116037304, 11664, 4
116059128, 400, 2401
116082012, 121, 961
116103844, 1444, 81
116125688, 28561, 324
116149620, 2704, 1849
116173548, 64, 1
116192272, 1936, 256
116215152, 729, 196
116236980, 1521, 256
116259864, 15876, 361
116283760, 16900, 3969
116308740, 0, 1089
116329548, 31684, 8100
116354516, 9, 16
116373220, 361, 100
116395060, 8281, 36
116416896, 1296, 2500
116440812, 19321, 1369
116465780, 23104, 2601
116490744, 0, 361
116510508, 25921, 3364
116535472, 169, 9
116555236, 9, 400
116574976, 20736, 841
116598904, 11881, 196
116622812, 7921, 64
116644640, 7225, 4
116665464, 400, 4
116685232, 17689, 121
116709140, 1764, 144
116732032, 841, 64
116752832, 1156, 100
116775704, 12100, 400
116799616, 1681, 9
116820396, 7225, 1936
116844352, 729, 0
116864104, 1, 1936
116884892, 576, 64
116905708, 25, 144
116926492, 4356, 196
116949384, 4096, 1
116970188, 11664, 3481
116995140, 0, 36
117013880, 30564, 12100
117039844, 5828, 8464
117063780, 31684, 8100
117088732, 0, 729
117108484, 0, 5929
117129320, 1424, 5776
117153224, 30276, 2025
117178160, 0, 900
117197956, 5828, 7744
117221840, 0, 4225
117242640, 20164, 2116
117267620, 13689, 484
117291540, 484, 1369
117314432, 7396, 2025
117338344, 0, 441
117358108, 4689, 9801
117382000, 0, 1089
117402796, 6724, 841
117425676, 1156, 676
117448584, 26569, 16
117471484, 3481, 900
117494352, 5476, 225
117517196, 0, 169
117536976, 30276, 7744
117561928, 1, 81
117580656, 1, 121
117600404, 400, 1089
117623296, 324, 144
117645132, 25, 16
117664904, 13689, 256
117688820, 1681, 361
117711708, 4096, 784
117734596, 81, 1
117753308, 0, 1225
117774120, 900, 49
117794904, 8100, 0
117815696, 7744, 36
117837528, 14641, 676
117861448, 12321, 2601
117886416, 22801, 400
117910332, 5625, 5476
117934276, 49, 9
117952996, 900, 36
117973796, 4, 121
117993556, 5476, 400
118016424, 36, 49
118036184, 1156, 81
118058016, 81, 16
118077792, 5041, 289
118100652, 576, 9
118120420, 1296, 484
118143320, 21609, 1
118165116, 1545, 1681
118189084, 0, 6889
118209864, 0, 4489
118230664, 4096, 1369
118254584, 3364, 1444
118278484, 24025, 4
118300332, 19600, 3136
118325292, 19321, 1369
118350260, 1024, 5476
118374172, 0, 3481
118394992, 29328, 5625
118419936, 0, 2401
118440744, 0, 7225
118461524, 3969, 1764
118485464, 31684, 625
118509384, 64, 2401
118531236, 7056, 49
118553068, 576, 676
118574904, 3969, 169
118597788, 14400, 196
118621708, 23409, 1600
118646652, 32761, 25
118669536, 18225, 4356
118694504, 64, 961
118715296, 81, 676
118736100, 17161, 361
118760012, 576, 1444
118782896, 8464, 121
118805780, 28900, 256
118829700, 0, 7225
118850508, 12321, 1849
118875456, 31684, 361
118899368, 961, 2401
118922236, 7396, 256
118945144, 24964, 9
118966980, 2704, 4356
118990916, 100, 16
119011716, 900, 64
119032496, 0, 0
119050176, 697, 7056
119073056, 0, 6561
119093864, 8836, 36
119115688, 0, 729
119135472, 0, 7744
119156256, 0, 1444
119177044, 1156, 169
119199928, 4096, 49
119221804, 529, 121
119243620, 1936, 1521
119267536, 5929, 1369
119291468, 5041, 1444
119315372, 9025, 1296
119339292, 5476, 1681
119363212, 3249, 5929
119387128, 0, 4
119404824, 0, 11881
119426668, 27489, 4900
119451604, 20164, 1521
119476588, 17956, 36
119499456, 14400, 4900
119524416, 27225, 81
119547304, 15129, 7396
119572268, 9, 1
119589956, 2116, 484
119612832, 225, 1296
119635688, 14884, 441
119659616, 1, 225
119679380, 12321, 1600
119704336, 22500, 36
119727216, 14400, 1369
119752200, 2809, 4
119772992, 1936, 1024
119796896, 0, 121
119816656, 17424, 7396
119841612, 100, 100
119863456, 3721, 0
119884248, 169, 3844
119907144, 29241, 784
119931072, 18769, 961
119954972, 27225, 9
119976832, 1936, 2916
120000744, 784, 1
120020496, 441, 1
120040252, 169, 484
120062104, 144, 4
120081864, 576, 361
120103716, 36, 900
120124508, 5929, 169
120147392, 361, 25
120168192, 5476, 1521
120192112, 196, 900
120213944, 8649, 0
120234740, 961, 1369
120257620, 12769, 1444
120282568, 10404, 2500
120307540, 0, 121
120327308, 30625, 3844
120352280, 1, 16
120370988, 0, 225
120390760, 225, 441
120412580, 32041, 36
120435472, 0, 529
120455224, 8281, 1296
120479148, 81, 49
120498884, 2304, 36
120520736, 36, 0
120539452, 0, 81
120558172, 5476, 0
120578984, 10000, 841
120602892, 784, 784
120624740, 11449, 729
120648652, 3249, 729
120671552, 1024, 25
120693384, 2704, 576
120716244, 0, 9
120733928, 24964, 6241
120758892, 4, 49
120777612, 4624, 361
120800484, 6084, 1764
120824428, 12864, 1521
120849376, 0, 2500
120870196, 6084, 784
120893060, 36, 64
120912808, 1225, 9
120933636, 1444, 9
120954428, 1600, 36
120976248, 289, 576
120998088, 2025, 81
121019940, 2500, 36
121041784, 4225, 529
121064668, 16641, 841
121088576, 169, 256
121110428, 3600, 961
121133312, 1296, 16
121155128, 0, 196
121174912, 27489, 8836
121199864, 22201, 3249
121224820, 3364, 625
121247696, 256, 1296
121270584, 225, 900
121292424, 49, 900
121313224, 3969, 1
121334040, 1156, 1
121354816, 484, 81
121375604, 576, 3481
121398492, 3969, 5184
121422416, 4489, 10000
121447372, 1444, 7056
121471312, 144, 225
121493128, 196, 5776
121516012, 961, 17689
121539960, 36, 1156
121561792, 361, 1600
121584668, 121, 6561
121607540, 441, 5625
121630424, 729, 324
121652272, 0, 1600
121673068, 144, 1521
121695956, 9, 3481
121716748, 144, 11449
121740668, 900, 23716
121764576, 484, 900
121786428, 6561, 3481
121810348, 11449, 289
121834264, 484, 3481
121857132, 8649, 7056
121881064, 676, 1369
121903944, 784, 4096
121926796, 0, 6241
121947608, 20164, 2025
121972592, 0, 0
121990264, 32041, 6889
122015208, 6724, 5329
122039136, 81, 5041
122060980, 13988, 900
122084868, 15625, 24336
122110864, 10609, 4624
122135876, 1024, 5089
122159784, 361, 7056
122182672, 256, 22801
122206572, 5625, 2401
122230476, 2916, 4624
122254420, 1156, 0
122275216, 1225, 0
122296008, 11449, 2401
122320984, 625, 0
122340748, 144, 20736
122364628, 10201, 0
122386508, 9801, 0
122407308, 7569, 361
122430172, 4356, 2704
122454072, 14400, 2704
122479040, 13456, 6561
122504004, 256, 18769
122527968, 2064, 121
122550804, 0, 1444
122571628, 625, 7905
122594508, 12321, 0
122616356, 1225, 1
122637136, 1681, 361
122660028, 2116, 9
122680796, 0, 12100
122702640, 0, 28100
122724468, 0, 0
122742164, 24025, 4
122764008, 1849, 10609
122788972, 0, 841
122808720, 23716, 6724
122833712, 144, 0
122853452, 676, 0
122873228, 4225, 0
122893996, 12321, 6084
122918964, 14400, 4761
122943936, 0, 4761
122964720, 14884, 21025
122990760, 196, 24464
123014672, 11664, 10609
123040660, 784, 0
123060440, 1369, 12305
123085372, 3481, 0
123106184, 400, 26569
123130096, 7396, 6889
123153992, 26244, 32400
123180004, 14641, 4761
123204956, 31684, 4689
123229948, 2601, 0
123250748, 18769, 196
123274640, 0, 16641
123296476, 19321, 23716
123322508, 1028, 5184
123346416, 0, 9
123364096, 81, 8281
123385944, 18496, 784
123409856, 17424, 13456
123435848, 4356, 2064
123459780, 18496, 30976
123485744, 21316, 961
123509680, 11236, 0
123531536, 4489, 23104
123556484, 12769, 4761
123581460, 11449, 24649
123607460, 9, 13225
123629304, 6400, 324
123652188, 1089, 2500
123676084, 8100, 2025
123700000, 400, 29929
123723940, 0, 729
123743696, 0, 4900
123764504, 1089, 9
123785308, 144, 25
123806108, 9, 784
123825856, 5329, 4489
123849792, 5625, 6561
123873672, 0, 31684
123895532, 0, 23104
123917368, 5041, 11236
123942348, 4160, 0
123963140, 7364, 0
123983952, 15876, 12996
124009900, 0, 4096
124030732, 0, 2116
124051544, 23716, 20313
124077512, 0, 0
124095196, 0, 1156
124116028, 28561, 5476
124140948, 16384, 24336
124166972, 19472, 19600
124192992, 0, 0
124210656, 529, 29328
124234584, 1024, 8448
124258496, 15625, 16384
124284472, 21025, 0
124306312, 0, 3969
124327124, 0, 16900
124348976, 2500, 5476
124372888, 25, 8464
124394724, 5476, 20449
124419696, 13456, 5329
124444656, 0, 8649
124465460, 29584, 0
124487296, 900, 13689
124511208, 5184, 0
124532016, 12769, 7569
124556968, 22201, 14400
124582980, 0, 2116
124603776, 21025, 5329
124628748, 1156, 900
124651608, 0, 0
124669308, 0, 26537
124691120, 13988, 17985
124717128, 7396, 1225
124741032, 3136, 0
124761848, 0, 8100
124782668, 0, 1
124800320, 0, 26569
124822168, 4689, 32400
124847132, 1936, 324
124870028, 12544, 28900
124896000, 0, 5329
124916808, 0, 30276
124938660, 961, 484
124960504, 13689, 10404
124986500, 1444, 2116
125010432, 5329, 0
125031220, 14884, 2209
125056164, 729, 17956
125080112, 0, 0
125097772, 6569, 0
125118572, 28900, 0
125140432, 289, 1936
125163288, 17424, 8836
125188268, 13924, 0
125210076, 0, 6241
125230920, 2884, 256
125253784, 29945, 676
125277692, 17689, 0
125299520, 1936, 0
125320336, 26896, 1089
125345292, 23104, 11025
125371292, 25281, 0
125393152, 18225, 0
125414984, 1156, 2916
125438884, 2704, 0
125459688, 8100, 32400
125484652, 21904, 9216
125509612, 3249, 14641
125534556, 28224, 3969
125559552, 0, 9801
125580320, 27556, 3721
125605308, 22080, 1
125627128, 0, 9
125644828, 225, 4900
125667692, 3364, 1521
125691616, 4356, 0
125712420, 12544, 29584
125738404, 2601, 3721
125762344, 12864, 10609
125788356, 27889, 0
125810196, 3481, 729
125833064, 0, 36
125851772, 22801, 7225
125876756, 3364, 1
125897532, 2601, 36
125919384, 21025, 3364
125944360, 225, 16
125965148, 12544, 9216
125990084, 0, 12100
126011916, 22801, 24649
126037916, 1521, 169
126060844, 0, 15625
126082648, 0, 0
126100340, 2116, 1
126121136, 1156, 4624
126145048, 7056, 6724
126168968, 21025, 0
126190836, 256, 1764
126213692, 256, 2209
126236564, 3025, 0
126257396, 441, 0
126277132, 10816, 64
126300020, 2500, 3364
126323944, 2401, 1681
126347856, 2209, 1089
126371748, 11193, 29929
126397784, 22801, 7905
126422724, 0, 169
126442484, 3844, 7921
126466444, 1849, 1369
126490348, 3249, 17161
126515284, 0, 6561
126536092, 0, 25921
126557928, 3721, 1225
126581860, 25921, 484
126605776, 1089, 3481
126629696, 16384, 16129
126655684, 24964, 5476
126680660, 5089, 15625
126705620, 11025, 2025
126730572, 19044, 0
126752392, 12996, 24649
126778400, 31329, 7569
126803368, 0, 0
126821056, 0, 17424
126842916, 484, 961
126864752, 289, 169
126886576, 3481, 6889
126910516, 7225, 169
126933372, 18769, 1444
126958328, 0, 32400
126980188, 6084, 22201
127005136, 5184, 8836
127029064, 7056, 13988
127054008, 2809, 27889
127078976, 9540, 18769
127103916, 19881, 4096
127128900, 11025, 0
127150716, 4, 0
127168412, 0, 2116
127189204, 0, 15625
127211060, 7744, 361
127233944, 4, 2401
127254736, 289, 1936
127277592, 2601, 6400
127301528, 0, 32041
127323376, 9216, 21025
127348332, 28561, 17424
127374352, 2401, 5041
127398260, 16833, 27889
127424252, 0, 14884
127446100, 1521, 576
127468960, 14884, 23104
127494960, 20164, 0
127516800, 5625, 0
127537592, 1089, 17956
127562584, 0, 3364
127583376, 0, 20449
127605216, 3600, 1
127626000, 2601, 13225
127650980, 2809, 0
127671776, 2116, 9604
127695684, 4356, 0
127716500, 0, 0
127734156, 25744, 5625
127759120, 11748, 10404
127785140, 12321, 5476
127810084, 8804, 12769
127835056, 0, 841
127854836, 0, 324
127874584, 14400, 841
127898480, 1681, 23409
127923452, 0, 14884
127945284, 0, 1681
127966104, 3844, 0
127986908, 27556, 81
128009776, 27556, 21025
128035764, 7396, 27225
128060724, 961, 23409
128084652, 576, 20164
128108588, 9, 15876
128130428, 3600, 5625
128154340, 2916, 3600
128178240, 17424, 4761
128203212, 31684, 3481
128228176, 0, 0
128245848, 0, 0
128263544, 3025, 361
128286424, 100, 22201
128310328, 0, 1681
128331128, 22801, 22201
128357120, 676, 10404
128381056, 0, 5625
128401844, 0, 7744
128422668, 3600, 3481
128446604, 1849, 8464
128470504, 0, 1156
128491292, 0, 17161
128513124, 100, 81
128533924, 144, 625
128555776, 7569, 784
128578664, 0, 8100
128599460, 1369, 27556
128624428, 144, 14161
128648344, 5625, 0
128669140, 9025, 0
128689928, 0, 144
128709696, 24964, 6724
128734656, 26569, 10816
128760652, 12996, 784
128784592, 6561, 225
128807444, 0, 27556
128829288, 19600, 3844
128854252, 7056, 1
128875044, 8649, 6084
128898980, 0, 121
128918752, 27556, 10201
128944744, 13225, 1936
128969672, 5625, 1089
128993612, 20449, 0
129015452, 0, 21316
129037288, 676, 8100
129060172, 0, 289
129079932, 32761, 19600
129105908, 0, 1681
129126748, 21809, 3969
129151684, 20249, 7225
129176672, 0, 4689
129197448, 28224, 19600
129223452, 5625, 3600
129247376, 0, 0
129265040, 11449, 0
129286884, 13689, 0
129308744, 9025, 1089
129332636, 576, 1444
129355512, 1296, 5184
129379444, 0, 2209
129400256, 0, 21609
129422108, 121, 1296
129444972, 17956, 11025
129470980, 16641, 4761
129495924, 6084, 12769
129520908, 11193, 784
129544808, 0, 25600
129566640, 7225, 3844
129590564, 2116, 11236
129615528, 13456, 7225
129640504, 400, 529
129662348, 3844, 400
129685220, 6084, 12544
129710176, 0, 529
129729920, 21904, 16900
129755936, 24964, 12544
129781952, 49, 19600
129804816, 17689, 4624
129829776, 2704, 0
129850572, 81, 9409
129872408, 3481, 196
129895292, 21316, 25
129918192, 361, 196
129940024, 1444, 1764
129963932, 7225, 2601
129987856, 26896, 361
130011764, 22500, 8281
130036720, 0, 11449
130058584, 4624, 21316
130083532, 21609, 36
130106416, 4356, 10816
130131352, 0, 5776
130152152, 24649, 7396
130177140, 32041, 324
130201056, 20449, 7396
130226020, 625, 18769
130249936, 16641, 13689
130275908, 18496, 18496
130301920, 0, 4489
130322736, 30276, 2116
130347696, 19600, 10816
130373700, 121, 13225
130397616, 0, 7225
130418420, 3364, 9216
130442340, 18225, 400
130466240, 5625, 12544
130491196, 10816, 31684
130517212, 24025, 7569
130542180, 961, 14641
130566088, 0, 24025
130587936, 8281, 19881
130612888, 144, 1
130632632, 1, 2916
130653460, 6084, 5041
130677380, 49, 3844
130699208, 10000, 16
130722088, 24964, 1
130743952, 49, 8281
130765768, 18225, 81
130788652, 21904, 5776
130813616, 36, 324
130834408, 5041, 1296
130858352, 10089, 1849
130883280, 0, 5476
130904100, 5041, 1369
130928004, 0, 3136
130948804, 28561, 5776
130973772, 1156, 4356
130997692, 25600, 5776
131022652, 0, 0
131040340, 11025, 21316
